D:\MassHunter\GCMS\1\data\Elizabeth\B06\24.06.06\RAU-R505-16.D 06 Jun 24  08:21 pm
Start of data points
1.09283,28163044
1.09862,27732440
1.10438,26660034
1.11017,26080210
1.11593,25351644
1.12172,24816656
1.12748,24382844
1.13327,23750932
1.13903,23281826
1.14482,22917156
1.15058,23066064
1.15637,25912910
1.16213,654164
1.16792,523394
1.17368,467027
1.17947,443631
1.18525,494430
1.19102,663820
1.1968,983733
1.20257,1336182
1.20835,1988887
1.21412,1434999
1.2199,300296
1.22567,212582
1.23145,194610
1.23722,184677
1.243,176271
1.24877,267261
1.25455,641079
1.26032,1265204
1.2661,831776
1.27187,189688
1.27765,123419
1.28342,114369
1.2892,108587
1.29497,103502
1.30075,96984
1.30652,90762
1.3123,85289
1.31808,83026
1.32385,105991
1.32963,245946
1.3354,424800
1.34118,183201
1.34695,75958
1.35273,61986
1.3585,59272
1.36428,55303
1.37005,52847
1.37583,50560
1.3816,49136
1.38738,46520
1.39315,44137
1.39893,42723
1.4047,40301
1.41048,40428
1.41625,39295
1.42203,36495
1.4278,34850
1.43358,34214
1.43937,44259
1.44513,199243
1.45092,237730
1.45668,150115
1.46247,93199
1.46823,41384
1.47402,29118
1.47978,28181
1.48557,83628
1.49133,576304
1.49712,1159671
1.50288,645089
1.50867,176340
1.51443,57266
1.52022,28471
1.52598,24928
1.53177,31240
1.53753,29766
1.54332,22923
1.54908,19477
1.55487,17409
1.56063,16813
1.56642,16988
1.5722,15820
1.57797,15428
1.58375,15876
1.58952,14344
1.5953,14042
1.60107,14339
1.60685,13739
1.61262,13691
1.6184,13276
1.62417,13158
1.62995,12426
1.63572,12711
1.6415,11565
1.64727,12298
1.65305,12136
1.65882,11685
1.6646,11305
1.67037,12961
1.67615,18441
1.68192,23120
1.6877,17002
1.69347,11391
1.69925,10117
1.70503,10384
1.7108,9939
1.71658,8947
1.72235,9569
1.72813,10355
1.7339,90721
1.73968,1235352
1.74545,3175948
1.75123,2648264
1.757,1097470
1.76278,375092
1.76855,123202
1.77433,38408
1.7801,22707
1.78588,46321
1.79165,63142
1.79743,48994
1.8032,40268
1.80898,44022
1.81475,34145
1.82053,18203
1.82632,10858
1.83208,7524
1.83787,8271
1.84363,12049
1.84942,32003
1.85518,59247
1.86097,48919
1.86673,31251
1.87252,38598
1.87828,45344
1.88407,31097
1.88983,16631
1.89562,10045
1.90138,7045
1.90717,6301
1.91293,5902
1.91872,6137
1.92448,5502
1.93027,6064
1.93603,5345
1.94182,4996
1.94758,6972
1.95337,15798
1.95915,31838
1.96492,32285
1.9707,20654
1.97647,11487
1.98225,9579
1.98802,13972
1.9938,22078
1.99957,18988
2.00535,11971
2.01112,10487
2.0169,17735
2.02267,29862
2.02845,27223
2.03422,17780
2.04,10032
2.04577,6710
2.05155,5322
2.05732,4642
2.0631,4424
2.06887,4434
2.07465,4189
2.08043,3919
2.0862,4424
2.09198,4138
2.09775,4127
2.10353,4925
2.1093,4393
2.11508,4587
2.12085,4633
2.12663,3880
2.1324,4403
2.13818,4147
2.14395,4388
2.14973,4111
2.1555,4159
2.16128,4047
2.16705,4893
2.17283,4107
2.1786,3408
2.18438,3950
2.19015,4050
2.19593,4804
2.2017,3575
2.20748,3310
2.21327,3869
2.21903,3377
2.22482,3601
2.23058,3282
2.23637,3835
2.24213,3686
2.24792,3429
2.25368,3833
2.25947,3484
2.26523,3367
2.27102,3759
2.27678,3364
2.28257,3356
2.28833,3224
2.29412,3221
2.29988,2966
2.30567,3382
2.31143,3144
2.31722,3268
2.32298,2881
2.32877,2915
2.33455,3183
2.34032,3718
2.3461,3018
2.35187,3407
2.35765,2843
2.36342,3323
2.3692,2822
2.37497,2832
2.38075,2917
2.38652,3100
2.3923,2950
2.39807,3194
2.40385,2850
2.40962,2905
2.4154,3090
2.42117,2696
2.42695,2660
2.43272,2762
2.4385,3206
2.44427,3184
2.45005,2967
2.45582,3043
2.4616,2974
2.46738,2805
2.47315,2755
2.47893,2559
2.4847,3151
2.49048,2571
2.49625,2546
2.50203,2596
2.5078,2602
2.51358,2409
2.51935,2595
2.52513,2403
2.5309,2708
2.53668,2619
2.54245,2606
2.54823,2632
2.554,2200
2.55978,2442
2.56555,2377
2.57133,2674
2.5771,2720
2.58288,2470
2.58865,2226
2.59443,2607
2.60022,2492
2.60598,2229
2.61177,2329
2.61753,2435
2.62332,2444
2.62908,2461
2.63487,2468
2.64063,2447
2.64642,2386
2.65218,2639
2.65797,2089
2.66373,2278
2.66952,2477
2.67528,2570
2.68107,2328
2.68683,2355
2.69262,2508
2.69838,2669
2.70417,2248
2.70993,2420
2.71572,2062
2.7215,2050
2.72727,2482
2.73305,2357
2.73882,2253
2.7446,2361
2.75037,2070
2.75615,2223
2.76192,2034
2.7677,2132
2.77347,2128
2.77925,2259
2.78502,2261
2.7908,1860
2.79657,2010
2.80235,2017
2.80812,1882
2.8139,1765
2.81967,2073
2.82545,1892
2.83122,2102
2.837,1940
2.84277,1879
2.84855,1961
2.85433,2121
2.8601,2197
2.86588,1931
2.87165,1880
2.87743,1918
2.8832,1937
2.88898,1809
2.89475,1761
2.90053,1868
2.9063,1628
2.91208,1801
2.91785,2002
2.92363,1634
2.9294,1750
2.93518,2040
2.94095,1822
2.94673,1993
2.9525,2040
2.95828,1686
2.96405,2038
2.96983,1925
2.9756,1645
2.98138,1641
2.98717,1639
2.99293,1992
2.99872,1578
3.00448,1912
3.01027,2140
3.01603,1884
3.02182,1643
3.02758,1662
3.03337,1861
3.03913,1982
3.04492,1879
3.05068,1692
3.05647,1601
3.06223,1709
3.06802,1887
3.07378,2114
3.07957,1828
3.08533,1844
3.09112,1498
3.09688,1777
3.10267,1762
3.10845,1726
3.11422,1394
3.12,2138
3.12577,1539
3.13155,1521
3.13732,1750
3.1431,1576
3.14887,1751
3.15465,1917
3.16042,1460
3.1662,1554
3.17197,1773
3.17775,1646
3.18352,1802
3.1893,1714
3.19507,1448
3.20085,1353
3.20662,1267
3.2124,1490
3.21817,1345
3.22395,1778
3.22972,1930
3.2355,1553
3.24128,1744
3.24705,1494
3.25283,1510
3.2586,1145
3.26438,1665
3.27015,1204
3.27593,1836
3.2817,1641
3.28748,1624
3.29325,1510
3.29903,1473
3.3048,1531
3.31058,1297
3.31635,1398
3.32213,1306
3.3279,1608
3.33368,1370
3.33945,1720
3.34523,1550
3.351,1254
3.35678,1176
3.36257,1587
3.36833,1478
3.37412,1173
3.37988,1510
3.38567,1290
3.39143,1731
3.39722,1361
3.40298,1663
3.40877,1449
3.41453,1315
3.42032,1232
3.42608,1276
3.43187,1500
3.43763,1413
3.44342,1214
3.44918,944
3.45497,1579
3.46073,1402
3.46652,1350
3.47228,1302
3.47807,1105
3.48383,1353
3.48962,1120
3.4954,1625
3.50117,826
3.50695,1341
3.51272,1285
3.5185,1457
3.52427,1075
3.53005,1581
3.53582,1489
3.5416,1681
3.54737,1552
3.55315,1522
3.55892,1278
3.5647,1187
3.57047,986
3.57625,1400
3.58202,1038
3.5878,1354
3.59357,1208
3.59935,763
3.60512,1347
3.6109,668
3.61668,1011
3.62245,1103
3.62823,805
3.634,1173
3.63978,1370
3.64555,1238
3.65133,1013
3.6571,1363
3.66288,1289
3.66865,1395
3.67443,1005
3.6802,1076
3.68598,1017
3.69175,1248
3.69753,1374
3.7033,1374
3.70908,1204
3.71485,1131
3.72063,1254
3.7264,1345
3.73218,1132
3.73795,1113
3.74373,1165
3.74952,984
3.75528,1356
3.76107,835
3.76683,1048
3.77262,786
3.77838,1421
3.78417,1155
3.78993,1288
3.79572,871
3.80148,1106
3.80727,1100
3.81303,1016
3.81882,1026
3.82458,1069
3.83037,733
3.83613,1231
3.84192,1238
3.84768,1197
3.85347,1157
3.85923,1180
3.86502,1202
3.87078,1296
3.87657,1036
3.88235,1178
3.88812,883
3.8939,1137
3.89967,973
3.90545,900
3.91122,917
3.917,760
3.92277,1002
3.92855,900
3.93432,949
3.9401,609
3.94587,897
3.95165,571
3.95742,1077
3.9632,1152
3.96897,1081
3.97475,880
3.98052,750
3.9863,1136
3.99207,805
3.99785,911
4.00363,1067
4.0094,786
4.01518,952
4.02095,1129
4.02673,862
4.0325,989
4.03828,878
4.04405,1136
4.04983,1261
4.0556,532
4.06138,763
4.06715,852
4.07293,1403
4.0787,1006
4.08448,931
4.09025,1288
4.09603,951
4.1018,11908
4.10758,15173
4.11335,15503
4.11913,13700
4.1249,12770
4.13068,11497
4.13647,10793
4.14223,11460
4.14802,9752
4.15378,9524
4.15957,8456
4.16533,9133
4.17112,7976
4.17688,7678
4.18267,6978
4.18843,6839
4.19422,6063
4.19998,5713
4.20577,5843
4.21153,5811
4.21732,5168
4.22308,5091
4.22887,4798
4.23463,4850
4.24042,4669
4.24618,4252
4.25197,4635
4.25775,4464
4.26352,3878
4.2693,3852
4.27507,3578
4.28085,3200
4.28662,3187
4.2924,3797
4.29817,3646
4.30395,3834
4.30972,3397
4.3155,3153
4.32127,3065
4.32705,3016
4.33282,2461
4.3386,2868
4.34437,2741
4.35015,2816
4.35592,3028
4.3617,2871
4.36747,2816
4.37325,2619
4.37902,2573
4.3848,2520
4.39058,2306
4.39635,2421
4.40213,2713
4.4079,2673
4.41368,2507
4.41945,2592
4.42523,2257
4.431,1888
4.43678,1996
4.44255,1964
4.44833,2138
4.4541,2315
4.45988,1705
4.46565,2347
4.47143,2289
4.4772,2009
4.48298,2208
4.48875,1889
4.49453,2014
4.5003,2066
4.50608,2209
4.51185,2093
4.51763,2143
4.52342,2322
4.52918,1758
4.53497,2108
4.54073,1854
4.54652,2259
4.55228,2299
4.55807,1890
4.56383,2139
4.56962,1891
4.57538,1780
4.58117,1533
4.58693,1855
4.59272,2221
4.59848,1696
4.60427,2104
4.61003,2055
4.61582,1713
4.62158,1571
4.62737,1860
4.63313,1270
4.63892,2074
4.6447,2104
4.65047,1581
4.65625,1654
4.66202,1811
4.6678,1667
4.67357,1456
4.67935,2088
4.68512,1991
4.6909,1769
4.69667,2136
4.70245,2229
4.70822,1836
4.714,1495
4.71977,1895
4.72555,2165
4.73132,1431
4.7371,1439
4.74287,1960
4.74865,2011
4.75442,1568
4.7602,1529
4.76597,1305
4.77175,2011
4.77753,1616
4.7833,1174
4.78908,1590
4.79485,1481
4.80063,1564
4.8064,1147
4.81218,1672
4.81795,2045
4.82373,1386
4.8295,2260
4.83528,2209
4.84105,1904
4.84683,1867
4.8526,1612
4.85838,1293
4.86415,1818
4.86993,1352
4.8757,1219
4.88148,1909
4.88725,1460
4.89303,1569
4.89882,1920
4.90458,1296
4.91037,1394
4.91613,1410
4.92192,1711
4.92768,1892
4.93347,1233
4.93923,1696
4.94502,1382
4.95078,1354
4.95657,1929
4.96233,1643
4.96812,1707
4.97388,1441
4.97967,1474
4.98543,1322
4.99122,1454
4.99698,1519
5.00277,1136
5.00853,1630
5.01432,1687
5.02008,1320
5.02587,1617
5.03165,1597
5.03742,1373
5.0432,1496
5.04897,1059
5.05475,1513
5.06052,1689
5.0663,1236
5.07207,1637
5.07785,1566
5.08362,1728
5.0894,1492
5.09517,1431
5.10095,1361
5.10672,1642
5.1125,1058
5.11827,1542
5.12405,1280
5.12982,1375
5.1356,1119
5.14137,1574
5.14715,1459
5.15293,1607
5.1587,1189
5.16448,1429
5.17025,1382
5.17603,1289
5.1818,1417
5.18758,1607
5.19335,1411
5.19913,838
5.2049,1832
5.21068,1492
5.21645,1567
5.22223,1450
5.228,1425
5.23378,1469
5.23955,1294
5.24533,1538
5.2511,1728
5.25688,1343
5.26265,1502
5.26843,1370
5.2742,1922
5.27998,1474
5.28577,1315
5.29153,1746
5.29732,1718
5.30308,1541
5.30887,1201
5.31463,1475
5.32042,1309
5.32618,1320
5.33197,1287
5.33773,1800
5.34352,1005
5.34928,1407
5.35507,1359
5.36083,1595
5.36662,1047
5.37238,1441
5.37817,1311
5.38393,1753
5.38972,1357
5.39548,1507
5.40127,1428
5.40703,1776
5.41282,1315
5.4186,1043
5.42437,1487
5.43015,1483
5.43592,1382
5.4417,1207
5.44747,1586
5.45325,1558
5.45902,1502
5.4648,1398
5.47057,1076
5.47635,1117
5.48212,1350
5.4879,1364
5.49367,1276
5.49945,1093
5.50522,1397
5.511,1232
5.51677,1728
5.52255,1549
5.52832,1322
5.5341,1187
5.53988,1709
5.54565,1769
5.55143,1299
5.5572,1217
5.56298,1574
5.56875,1498
5.57453,1666
5.5803,1813
5.58608,1376
5.59185,1440
5.59763,1605
5.6034,1539
5.60918,1722
5.61495,1239
5.62073,1482
5.6265,1244
5.63228,1571
5.63805,1540
5.64383,1571
5.6496,1451
5.65538,1773
5.66115,1829
5.66693,2201
5.67272,2005
5.67848,1833
5.68427,1710
5.69003,1820
5.69582,2057
5.70158,2023
5.70737,1601
5.71313,1886
5.71892,1441
5.72468,2218
5.73047,2336
5.73623,1844
5.74202,1410
5.74778,1850
5.75357,1893
5.75933,2011
5.76512,1743
5.77088,1955
5.77667,1811
5.78243,2025
5.78822,1671
5.794,1932
5.79977,1502
5.80555,1710
5.81132,1947
5.8171,1919
5.82287,1756
5.82865,1960
5.83442,1888
5.8402,1539
5.84597,2033
5.85175,1840
5.85752,2317
5.8633,2315
5.86907,1924
5.87485,1480
5.88062,1272
5.8864,1519
5.89217,1385
5.89795,1725
5.90372,1561
5.9095,1748
5.91527,1696
5.92105,1228
5.92683,1589
5.9326,1456
5.93838,1613
5.94415,1574
5.94993,1885
5.9557,1407
5.96148,1238
5.96725,1411
5.97303,1407
5.9788,1518
5.98458,1611
5.99035,1474
5.99613,1431
6.0019,1687
6.00768,1585
6.01345,1567
6.01923,1135
6.025,1369
6.03078,1548
6.03655,1437
6.04233,1354
6.04812,1347
6.05388,1758
6.05967,108553
6.06543,197969
6.07122,130627
6.07698,84735
6.08277,57897
6.08853,42300
6.09432,34187
6.10008,26299
6.10587,21733
6.11163,17719
6.11742,16269
6.12318,13973
6.12897,12514
6.13473,10718
6.14052,9936
6.14628,8747
6.15207,8358
6.15783,7949
6.16362,7113
6.16938,6849
6.17517,6189
6.18095,6274
6.18672,4914
6.1925,4639
6.19827,4665
6.20405,4523
6.20982,4231
6.2156,4006
6.22137,3554
6.22715,3288
6.23292,3713
6.2387,3570
6.24447,3080
6.25025,3544
6.25602,4789
6.2618,4020
6.26757,3863
6.27335,3441
6.27912,2811
6.2849,2904
6.29067,88974
6.29645,856450
6.30222,1235588
6.308,421587
6.31378,78583
6.31955,26939
6.32533,14359
6.3311,10668
6.33688,7620
6.34265,6492
6.34843,5491
6.3542,5013
6.35998,3516
6.36575,3628
6.37153,2875
6.3773,3350
6.38308,3326
6.38885,3435
6.39463,3305
6.4004,2756
6.40618,3082
6.41195,3111
6.41773,2631
6.4235,2495
6.42928,2424
6.43505,2569
6.44083,2496
6.44662,2081
6.45238,1911
6.45817,2356
6.46393,2162
6.46972,2307
6.47548,2291
6.48127,1739
6.48703,2331
6.49282,5022
6.49858,7362
6.50437,5551
6.51013,3307
6.51592,3431
6.52168,3554
6.52747,3884
6.53323,3010
6.53902,2075
6.54478,2047
6.55057,1532
6.55633,2180
6.56212,1647
6.5679,2075
6.57367,1539
6.57945,1921
6.58522,1703
6.591,909
6.59677,1751
6.60255,1587
6.60832,1355
6.6141,1438
6.61987,1587
6.62565,1465
6.63142,1405
6.6372,1527
6.64297,1583
6.64875,1775
6.65452,1541
6.6603,1934
6.66607,1489
6.67185,837
6.67762,1528
6.6834,1748
6.68917,1816
6.69495,1547
6.70073,1718
6.7065,1209
6.71228,870
6.71805,1464
6.72383,1196
6.7296,1681
6.73538,1819
6.74115,1799
6.74693,1443
6.7527,859
6.75848,982
6.76425,1153
6.77003,933
6.7758,1439
6.78158,1242
6.78735,1272
6.79313,1090
6.7989,1239
6.80468,778
6.81045,1033
6.81623,700
6.82202,1372
6.82778,1192
6.83357,1034
6.83933,886
6.84512,1265
6.85088,1088
6.85667,889
6.86243,1195
6.86822,825
6.87398,753
6.87977,784
6.88553,1279
6.89132,985
6.89708,818
6.90287,1038
6.90863,1299
6.91442,1082
6.92018,936
6.92597,1016
6.93173,909
6.93752,1065
6.94328,742
6.94907,710
6.95485,1069
6.96062,897
6.9664,1067
6.97217,1175
6.97795,1150
6.98372,1000
6.9895,1042
6.99527,710
7.00105,887
7.00682,853
7.0126,697
7.01837,795
7.02415,947
7.02992,961
7.0357,1268
7.04147,816
7.04725,997
7.05302,1149
7.0588,599
7.06457,918
7.07035,655
7.07613,1200
7.0819,959
7.08768,810
7.09345,893
7.09923,972
7.105,773
7.11078,822
7.11655,878
7.12233,765
7.1281,828
7.13388,1104
7.13965,1219
7.14543,1270
7.1512,1624
7.15698,2449
7.16275,2159
7.16853,3129
7.1743,4939
7.18008,5950
7.18585,7575
7.19163,8460
7.1974,10985
7.20318,13929
7.20897,16515
7.21473,19462
7.22052,22446
7.22628,26159
7.23207,29934
7.23783,33686
7.24362,38400
7.24938,41429
7.25517,45627
7.26093,49958
7.26672,55508
7.27248,62135
7.27827,66933
7.28403,73160
7.28982,83772
7.29558,91235
7.30137,102901
7.30713,119340
7.31292,166237
7.31868,539923
7.32447,694085
7.33023,243550
7.33602,104452
7.3418,70880
7.34757,51751
7.35335,42771
7.35912,35962
7.3649,31639
7.37067,29365
7.37645,26404
7.38222,25108
7.388,23369
7.39377,23642
7.39955,20829
7.40532,19509
7.4111,18218
7.41687,16041
7.42265,15168
7.42842,13772
7.4342,12106
7.43997,11997
7.44575,11435
7.45152,9874
7.4573,9943
7.46308,9642
7.46885,8505
7.47463,9113
7.4804,8255
7.48618,7800
7.49195,7534
7.49773,7383
7.5035,7270
7.50928,7320
7.51505,6456
7.52083,7067
7.5266,6439
7.53238,6869
7.53815,5513
7.54393,6077
7.5497,6034
7.55548,6027
7.56125,5788
7.56703,5556
7.5728,5766
7.57858,5742
7.58435,5821
7.59013,4886
7.59592,5572
7.60168,5161
7.60747,4487
7.61323,4910
7.61902,5092
7.62478,4792
7.63057,4557
7.63633,4810
7.64212,4923
7.64788,4961
7.65367,4897
7.65943,5106
7.66522,4662
7.67098,5364
7.67677,4403
7.68253,4655
7.68832,5147
7.69408,4839
7.69987,4631
7.70563,4575
7.71142,4728
7.7172,4590
7.72297,5148
7.72875,4479
7.73452,3377
7.7403,4080
7.74607,4080
7.75185,4081
7.75762,4427
7.7634,4486
7.76917,4085
7.77495,4148
7.78072,4239
7.7865,5128
7.79227,4502
7.79805,6083
7.80382,5291
7.8096,5551
7.81537,4963
7.82115,4771
7.82692,3947
7.8327,3909
7.83847,3962
7.84425,4383
7.85003,3572
7.8558,3904
7.86158,3691
7.86735,3404
7.87313,4326
7.8789,4119
7.88468,4019
7.89045,3214
7.89623,4103
7.902,3324
7.90778,3468
7.91355,3269
7.91933,3492
7.9251,3059
7.93088,3478
7.93665,3162
7.94243,3223
7.9482,3212
7.95398,2948
7.95975,3008
7.96553,2791
7.97132,3447
7.97708,3282
7.98287,3166
7.98863,3007
7.99442,2827
8.00018,3299
8.00597,3470
8.01173,2973
8.01752,2614
8.02328,3014
8.02907,3095
8.03483,3132
8.04062,2387
8.04638,2824
8.05217,2880
8.05793,2287
8.06372,2616
8.06948,2509
8.07527,2778
8.08103,2890
8.08682,2720
8.09258,2687
8.09837,3169
8.10415,2404
8.10992,2797
8.1157,2928
8.12147,2470
8.12725,3260
8.13302,2439
8.1388,2390
8.14457,2789
8.15035,2790
8.15612,2724
8.1619,2729
8.16767,2986
8.17345,2960
8.17922,2593
8.185,2725
8.19077,2552
8.19655,2862
8.20232,2959
8.2081,2490
8.21387,2601
8.21965,2751
8.22542,2955
8.2312,2540
8.23698,2413
8.24275,2241
8.24853,2974
8.2543,2302
8.26008,2192
8.26585,2386
8.27163,2969
8.2774,2688
8.28318,2052
8.28895,2540
8.29473,2773
8.3005,2265
8.30628,2590
8.31205,2028
8.31783,2253
8.3236,2011
8.32938,2267
8.33515,2074
8.34093,2122
8.3467,2131
8.35248,1724
8.35827,1708
8.36403,2191
8.36982,1942
8.37558,1593
8.38137,2049
8.38713,1495
8.39292,1934
8.39868,2236
8.40447,1951
8.41023,2034
8.41602,1782
8.42178,1916
8.42757,2114
8.43333,1653
8.43912,2093
8.44488,1487
8.45067,1554
8.45643,2289
8.46222,1961
8.46798,1567
8.47377,1288
8.47953,1985
8.48532,1479
8.4911,1780
8.49687,1559
8.50265,1642
8.50842,1089
8.5142,1616
8.51997,2232
8.52575,1824
8.53152,1424
8.5373,1721
8.54307,1470
8.54885,1410
8.55462,1816
8.5604,1792
8.56617,1783
8.57195,1363
8.57772,1902
8.5835,1352
8.58927,1230
8.59505,1623
8.60082,1224
8.6066,1521
8.61238,1922
8.61815,1165
8.62393,1511
8.6297,1005
8.63548,1754
8.64125,1287
8.64703,1278
8.6528,1179
8.65858,1357
8.66435,1163
8.67013,1072
8.6759,1173
8.68168,1530
8.68745,1440
8.69323,1196
8.699,1179
8.70478,799
8.71055,1689
8.71633,1021
8.7221,1236
8.72788,1292
8.73365,1074
8.73943,1227
8.74522,952
8.75098,1060
8.75677,1140
8.76253,1304
8.76832,1355
8.77408,1251
8.77987,1133
8.78563,1051
8.79142,917
8.79718,1103
8.80297,1258
8.80873,817
8.81452,1043
8.82028,707
8.82607,1290
8.83183,738
8.83762,1187
8.84338,769
8.84917,820
8.85493,1024
8.86072,1099
8.86648,1038
8.87227,1163
8.87805,985
8.88382,891
8.8896,1050
8.89537,1216
8.90115,1048
8.90692,1288
8.9127,1230
8.91847,1210
8.92425,810
8.93002,763
8.9358,666
8.94157,1458
8.94735,857
8.95312,635
8.9589,873
8.96467,782
8.97045,649
8.97622,839
8.982,856
8.98777,713
8.99355,906
8.99933,976
9.0051,1117
9.01088,1049
9.01665,775
9.02243,789
9.0282,459
9.03398,729
9.03975,618
9.04553,732
9.0513,768
9.05708,644
9.06285,824
9.06863,767
9.0744,1083
9.08018,1012
9.08595,649
9.09173,579
9.0975,632
9.10328,287
9.10905,834
9.11483,839
9.1206,817
9.12638,718
9.13217,757
9.13793,1271
9.14372,649
9.14948,829
9.15527,752
9.16103,656
9.16682,890
9.17258,675
9.17837,848
9.18413,776
9.18992,972
9.19568,798
9.20147,994
9.20723,674
9.21302,924
9.21878,676
9.22457,606
9.23033,883
9.23612,966
9.24188,996
9.24767,832
9.25345,838
9.25922,772
9.265,794
9.27077,602
9.27655,667
9.28232,729
9.2881,767
9.29387,676
9.29965,1192
9.30542,1149
9.3112,1022
9.31697,881
9.32275,740
9.32852,791
9.3343,966
9.34007,613
9.34585,831
9.35162,786
9.3574,766
9.36317,564
9.36895,841
9.37472,557
9.3805,807
9.38628,761
9.39205,789
9.39783,784
9.4036,812
9.40938,512
9.41515,875
9.42093,812
9.4267,825
9.43248,751
9.43825,509
9.44403,782
9.4498,1080
9.45558,912
9.46135,967
9.46713,1135
9.4729,725
9.47868,696
9.48445,978
9.49023,836
9.496,698
9.50178,1072
9.50757,918
9.51333,914
9.51912,907
9.52488,807
9.53067,1275
9.53643,812
9.54222,815
9.54798,794
9.55377,915
9.55953,753
9.56532,679
9.57108,695
9.57687,679
9.58263,997
9.58842,866
9.59418,715
9.59997,640
9.60573,1165
9.61152,839
9.61728,842
9.62307,1117
9.62883,1123
9.63462,968
9.6404,844
9.64617,841
9.65195,1100
9.65772,1010
9.6635,833
9.66927,782
9.67505,1038
9.68082,1439
9.6866,1169
9.69237,1007
9.69815,744
9.70392,1024
9.7097,1099
9.71547,1255
9.72125,1097
9.72702,710
9.7328,1071
9.73857,685
9.74435,958
9.75012,846
9.7559,914
9.76167,1069
9.76745,1102
9.77323,975
9.779,1185
9.78478,976
9.79055,1030
9.79633,1097
9.8021,1270
9.80788,1048
9.81365,1177
9.81943,883
9.8252,1014
9.83098,988
9.83675,981
9.84253,983
9.8483,879
9.85408,1206
9.85985,1231
9.86563,1143
9.8714,1085
9.87718,1062
9.88295,1750
9.88873,911
9.89452,1299
9.90028,951
9.90607,1235
9.91183,1280
9.91762,1219
9.92338,976
9.92917,1244
9.93493,1480
9.94072,1350
9.94648,1055
9.95227,1587
9.95803,1457
9.96382,1344
9.96958,869
9.97537,1454
9.98113,1544
9.98692,1401
9.99268,1163
9.99847,1113
10.0042,876
10.01,1166
10.0158,1157
10.0216,1367
10.0274,1489
10.0331,1737
10.0389,2244
10.0447,1492
10.0505,1832
10.0562,1691
10.062,1938
10.0678,1720
10.0736,1731
10.0793,1864
10.0851,1327
10.0909,1614
10.0967,1463
10.1024,1366
10.1082,1787
10.114,1605
10.1198,973
10.1255,1973
10.1313,2041
10.1371,1949
10.1429,21707
10.1486,147883
10.1544,228616
10.1602,100647
10.166,39442
10.1717,22937
10.1775,13624
10.1833,11025
10.1891,7428
10.1948,5959
10.2006,5134
10.2064,3943
10.2122,3827
10.2179,3489
10.2237,2830
10.2295,3042
10.2353,3009
10.241,3223
10.2468,2311
10.2526,2936
10.2584,2871
10.2641,2966
10.2699,18038
10.2757,473937
10.2815,3675885
10.2872,8646273
10.293,5315130
10.2988,842603
10.3046,346650
10.3103,212837
10.3161,150304
10.3219,114489
10.3277,88476
10.3334,73977
10.3392,61479
10.345,50220
10.3508,45610
10.3565,39727
10.3623,35332
10.3681,31488
10.3739,27373
10.3796,23696
10.3854,21463
10.3912,20078
10.397,19089
10.4027,16295
10.4085,15006
10.4143,13964
10.4201,12783
10.4259,10344
10.4316,10842
10.4374,10618
10.4432,10790
10.449,9992
10.4547,8274
10.4605,8388
10.4663,8348
10.4721,7831
10.4778,7622
10.4836,7972
10.4894,7747
10.4952,7334
10.5009,8133
10.5067,6551
10.5125,6619
10.5183,7399
10.524,6528
10.5298,6433
10.5356,6477
10.5414,6766
10.5471,5432
10.5529,6057
10.5587,5787
10.5645,5665
10.5702,5803
10.576,5045
10.5818,5883
10.5876,5688
10.5933,5036
10.5991,6640
10.6049,5242
10.6107,6701
10.6164,5602
10.6222,5560
10.628,5895
10.6338,5458
10.6395,6028
10.6453,5313
10.6511,5645
10.6569,5343
10.6626,5134
10.6684,5749
10.6742,5861
10.68,4955
10.6857,5855
10.6915,5374
10.6973,5313
10.7031,5592
10.7088,5934
10.7146,5778
10.7204,6327
10.7262,6048
10.7319,5835
10.7377,5432
10.7435,6284
10.7493,6095
10.755,5386
10.7608,5892
10.7666,5161
10.7724,6271
10.7781,5857
10.7839,5768
10.7897,6379
10.7955,5974
10.8013,6992
10.807,6040
10.8128,6199
10.8186,6226
10.8244,5979
10.8301,6428
10.8359,6747
10.8417,6050
10.8475,6747
10.8532,6603
10.859,6771
10.8648,6769
10.8706,6736
10.8763,7328
10.8821,6582
10.8879,6843
10.8937,6578
10.8994,7163
10.9052,7241
10.911,7414
10.9168,6687
10.9225,7276
10.9283,7289
10.9341,7134
10.9399,7504
10.9456,7724
10.9514,8477
10.9572,6860
10.963,7482
10.9687,8330
10.9745,8148
10.9803,8017
10.9861,7547
10.9918,8402
10.9976,7907
11.0034,8411
11.0092,8433
11.0149,8393
11.0207,7939
11.0265,8922
11.0323,9186
11.038,9202
11.0438,8610
11.0496,9117
11.0554,10157
11.0611,10154
11.0669,9732
11.0727,9081
11.0785,10031
11.0842,9145
11.09,9254
11.0958,10303
11.1016,10448
11.1073,10670
11.1131,10402
11.1189,10501
11.1247,10577
11.1304,10806
11.1362,10847
11.142,10331
11.1478,11147
11.1535,11452
11.1593,10734
11.1651,10799
11.1709,11091
11.1767,12128
11.1824,11706
11.1882,12051
11.194,12866
11.1998,11605
11.2055,11499
11.2113,12829
11.2171,11877
11.2229,14162
11.2286,12371
11.2344,12011
11.2402,12725
11.246,12832
11.2517,13958
11.2575,13867
11.2633,13178
11.2691,14042
11.2748,12796
11.2806,14075
11.2864,13991
11.2922,15434
11.2979,14773
11.3037,14515
11.3095,15032
11.3153,14162
11.321,14840
11.3268,15491
11.3326,16101
11.3384,15876
11.3441,15933
11.3499,15797
11.3557,14977
11.3615,16075
11.3672,15537
11.373,15711
11.3788,16924
11.3846,16570
11.3903,17456
11.3961,17116
11.4019,18410
11.4077,17670
11.4134,17557
11.4192,17598
11.425,19853
11.4308,19001
11.4365,18173
11.4423,19251
11.4481,19722
11.4539,20558
11.4596,18736
11.4654,19076
11.4712,19537
11.477,19919
11.4827,19613
11.4885,20702
11.4943,21721
11.5001,20908
11.5058,21676
11.5116,22213
11.5174,20247
11.5232,21334
11.5289,22910
11.5347,22177
11.5405,23696
11.5463,24524
11.552,23668
11.5578,24150
11.5636,24459
11.5694,23514
11.5752,24506
11.5809,24306
11.5867,24437
11.5925,25877
11.5983,25294
11.604,26616
11.6098,25683
11.6156,27462
11.6214,27588
11.6271,27626
11.6329,27470
11.6387,26654
11.6445,27888
11.6502,29010
11.656,26597
11.6618,29363
11.6676,30186
11.6733,29757
11.6791,30691
11.6849,29722
11.6907,29753
11.6964,31958
11.7022,30235
11.708,32225
11.7138,31171
11.7195,32313
11.7253,31892
11.7311,32529
11.7369,33284
11.7426,32674
11.7484,33125
11.7542,34167
11.76,32421
11.7657,34552
11.7715,35562
11.7773,36894
11.7831,35487
11.7888,37152
11.7946,36969
11.8004,35708
11.8062,36295
11.8119,39013
11.8177,35777
11.8235,37145
11.8293,37420
11.835,37262
11.8408,37632
11.8466,39171
11.8524,38633
11.8581,40020
11.8639,40801
11.8697,41447
11.8755,41943
11.8812,38470
11.887,41839
11.8928,41353
11.8986,42207
11.9043,42061
11.9101,44180
11.9159,43682
11.9217,42948
11.9274,41253
11.9332,42830
11.939,43617
11.9448,46043
11.9506,42933
11.9563,44970
11.9621,45284
11.9679,46222
11.9737,48038
11.9794,48050
11.9852,46744
11.991,46438
11.9968,47887
12.0025,48137
12.0083,49879
12.0141,50046
12.0199,48147
12.0256,48821
12.0314,46129
12.0372,48217
12.043,49489
12.0487,48643
12.0545,50067
12.0603,49620
12.0661,52445
12.0718,52906
12.0776,51114
12.0834,54439
12.0892,53008
12.0949,52737
12.1007,51526
12.1065,51628
12.1123,53757
12.118,53189
12.1238,56661
12.1296,54000
12.1354,54042
12.1411,55821
12.1469,55842
12.1527,55056
12.1585,57784
12.1642,55163
12.17,55579
12.1758,56809
12.1816,54845
12.1873,57620
12.1931,56726
12.1989,57548
12.2047,55834
12.2104,57045
12.2162,58743
12.222,57027
12.2278,57470
12.2335,58761
12.2393,59256
12.2451,58831
12.2509,59137
12.2566,60345
12.2624,59789
12.2682,57608
12.274,59175
12.2797,59026
12.2855,60608
12.2913,61815
12.2971,59427
12.3028,60439
12.3086,59200
12.3144,61141
12.3202,60206
12.326,59317
12.3317,61793
12.3375,62289
12.3433,62718
12.3491,63578
12.3548,60802
12.3606,62364
12.3664,61634
12.3722,61892
12.3779,63008
12.3837,61956
12.3895,62440
12.3953,62162
12.401,63198
12.4068,62380
12.4126,62369
12.4184,61412
12.4241,63519
12.4299,62271
12.4357,61599
12.4415,62835
12.4472,63027
12.453,64366
12.4588,64517
12.4646,62440
12.4703,63542
12.4761,64883
12.4819,62311
12.4877,62758
12.4934,65184
12.4992,65392
12.505,61912
12.5108,64821
12.5165,64369
12.5223,65087
12.5281,64732
12.5339,62429
12.5396,62854
12.5454,64138
12.5512,67034
12.557,65268
12.5627,61688
12.5685,65547
12.5743,65242
12.5801,66026
12.5858,64467
12.5916,63488
12.5974,64558
12.6032,63422
12.6089,64883
12.6147,65074
12.6205,63192
12.6263,65337
12.632,63541
12.6378,64586
12.6436,64194
12.6494,65397
12.6551,66608
12.6609,60898
12.6667,64492
12.6725,64679
12.6782,64815
12.684,65952
12.6898,65032
12.6956,64253
12.7013,66410
12.7071,64384
