D:\MassHunter\GCMS\1\data\Elizabeth\B06\24.06.06\RAU-R505-12.D 06 Jun 24  06:54 pm
Start of data points
1.09285 	 27631072
1.09863 	 27633338
1.1044 	 26645500
1.11018 	 26060430
1.11595 	 25494312
1.12173 	 24842700
1.1275 	 24394236
1.13328 	 23922016
1.13905 	 23320356
1.14483 	 22923780
1.15062 	 22595066
1.15638 	 27748060
1.16217 	 697026
1.16793 	 547297
1.17372 	 483119
1.17948 	 454988
1.18527 	 503086
1.19103 	 662907
1.19682 	 980053
1.20258 	 1344768
1.20837 	 1924111
1.21413 	 1662289
1.21992 	 358052
1.22568 	 225048
1.23147 	 209249
1.23723 	 192476
1.24302 	 182407
1.24878 	 254914
1.25457 	 595098
1.26033 	 1211687
1.26612 	 983795
1.2719 	 216820
1.27767 	 129917
1.28345 	 118307
1.28922 	 112572
1.295 	 107001
1.30077 	 99761
1.30655 	 93952
1.31232 	 90016
1.3181 	 85966
1.32387 	 99533
1.32965 	 219061
1.33542 	 433741
1.3412 	 220421
1.34697 	 80593
1.35275 	 65660
1.35852 	 62282
1.3643 	 56661
1.37007 	 54395
1.37585 	 53500
1.38162 	 50026
1.3874 	 48749
1.39317 	 45674
1.39895 	 44509
1.40473 	 41957
1.4105 	 41585
1.41628 	 39711
1.42205 	 37164
1.42783 	 37260
1.4336 	 36006
1.43938 	 41085
1.44515 	 162784
1.45093 	 253466
1.4567 	 158551
1.46248 	 101864
1.46825 	 45648
1.47403 	 30439
1.4798 	 27966
1.48558 	 60738
1.49135 	 444088
1.49713 	 1142725
1.5029 	 761994
1.50868 	 211605
1.51445 	 61287
1.52023 	 30364
1.526 	 23617
1.53178 	 29337
1.53757 	 31792
1.54333 	 24264
1.54912 	 19128
1.55488 	 17779
1.56067 	 17984
1.56643 	 16225
1.57222 	 15856
1.57798 	 15411
1.58377 	 16254
1.58953 	 14853
1.59532 	 15088
1.60108 	 14273
1.60687 	 13657
1.61263 	 14232
1.61842 	 13132
1.62418 	 12949
1.62997 	 12286
1.63573 	 12631
1.64152 	 12522
1.64728 	 11629
1.65307 	 11040
1.65883 	 11587
1.66462 	 11059
1.6704 	 12722
1.67617 	 17044
1.68195 	 22618
1.68772 	 18899
1.6935 	 13522
1.69927 	 10520
1.70505 	 9647
1.71082 	 9586
1.7166 	 9219
1.72237 	 9174
1.72815 	 8621
1.73392 	 42892
1.7397 	 808799
1.74547 	 2857679
1.75125 	 2965751
1.75702 	 1345961
1.7628 	 441788
1.76857 	 141025
1.77435 	 43488
1.78012 	 20625
1.7859 	 37871
1.79168 	 65020
1.79745 	 52831
1.80323 	 38049
1.809 	 44627
1.81478 	 35299
1.82055 	 20879
1.82633 	 11572
1.8321 	 8147
1.83788 	 7787
1.84365 	 9119
1.84943 	 25400
1.8552 	 51806
1.86098 	 51604
1.86675 	 33345
1.87253 	 34687
1.8783 	 45072
1.88408 	 35125
1.88985 	 18920
1.89563 	 10181
1.9014 	 7853
1.90718 	 6060
1.91295 	 6086
1.91873 	 6025
1.92452 	 5472
1.93028 	 4775
1.93607 	 5691
1.94183 	 5486
1.94762 	 6418
1.95338 	 11293
1.95917 	 27210
1.96493 	 34272
1.97072 	 23580
1.97648 	 12080
1.98227 	 8844
1.98803 	 12232
1.99382 	 21119
1.99958 	 21004
2.00537 	 14006
2.01113 	 9479
2.01692 	 13415
2.02268 	 25937
2.02847 	 29612
2.03423 	 21111
2.04002 	 10060
2.0458 	 6402
2.05157 	 4906
2.05735 	 4408
2.06312 	 3872
2.0689 	 4382
2.07467 	 4007
2.08045 	 4482
2.08622 	 4433
2.092 	 3947
2.09777 	 4539
2.10355 	 4317
2.10932 	 4413
2.1151 	 3935
2.12087 	 3675
2.12665 	 3995
2.13242 	 4435
2.1382 	 4129
2.14397 	 3927
2.14975 	 3848
2.15552 	 4357
2.1613 	 4570
2.16707 	 4558
2.17285 	 4340
2.17863 	 3728
2.1844 	 3634
2.19018 	 4007
2.19595 	 3650
2.20173 	 3700
2.2075 	 3679
2.21328 	 3589
2.21905 	 3475
2.22483 	 3650
2.2306 	 3506
2.23638 	 3806
2.24215 	 3226
2.24793 	 3743
2.2537 	 3531
2.25948 	 3465
2.26525 	 3366
2.27103 	 3690
2.2768 	 3506
2.28258 	 3754
2.28835 	 3032
2.29413 	 3205
2.29992 	 3247
2.30568 	 3449
2.31147 	 3381
2.31723 	 2876
2.32302 	 2746
2.32878 	 3027
2.33457 	 3069
2.34033 	 2897
2.34612 	 2817
2.35188 	 2759
2.35767 	 3163
2.36343 	 2767
2.36922 	 2769
2.37498 	 3008
2.38077 	 2969
2.38653 	 2249
2.39232 	 2656
2.39808 	 2955
2.40387 	 2749
2.40963 	 3055
2.41542 	 2797
2.42118 	 2888
2.42697 	 2625
2.43275 	 3063
2.43852 	 2868
2.4443 	 2967
2.45007 	 2588
2.45585 	 2648
2.46162 	 2760
2.4674 	 2651
2.47317 	 2336
2.47895 	 2574
2.48472 	 2752
2.4905 	 2369
2.49627 	 2640
2.50205 	 2548
2.50782 	 2809
2.5136 	 2646
2.51937 	 2565
2.52515 	 2446
2.53092 	 2610
2.5367 	 2654
2.54247 	 2224
2.54825 	 2284
2.55402 	 2195
2.5598 	 2640
2.56558 	 2533
2.57135 	 2404
2.57713 	 2478
2.5829 	 2326
2.58868 	 2286
2.59445 	 2519
2.60023 	 2328
2.606 	 2405
2.61178 	 2416
2.61755 	 2295
2.62333 	 2347
2.6291 	 2369
2.63488 	 2328
2.64065 	 2028
2.64643 	 2205
2.6522 	 2555
2.65798 	 2151
2.66375 	 2008
2.66953 	 1982
2.6753 	 2102
2.68108 	 1711
2.68687 	 2128
2.69263 	 2113
2.69842 	 2297
2.70418 	 2035
2.70997 	 1875
2.71573 	 2092
2.72152 	 2119
2.72728 	 2191
2.73307 	 1940
2.73883 	 1988
2.74462 	 2098
2.75038 	 2068
2.75617 	 1631
2.76193 	 2189
2.76772 	 2267
2.77348 	 2146
2.77927 	 1894
2.78503 	 1975
2.79082 	 2179
2.79658 	 2178
2.80237 	 1872
2.80813 	 2195
2.81392 	 1901
2.8197 	 1716
2.82547 	 1859
2.83125 	 1721
2.83702 	 2205
2.8428 	 1905
2.84857 	 1891
2.85435 	 1983
2.86012 	 2083
2.8659 	 1974
2.87167 	 1655
2.87745 	 2131
2.88322 	 2235
2.889 	 1821
2.89477 	 2140
2.90055 	 1833
2.90632 	 1777
2.9121 	 1846
2.91787 	 1967
2.92365 	 1700
2.92942 	 1899
2.9352 	 1841
2.94098 	 1918
2.94675 	 1850
2.95253 	 1717
2.9583 	 1727
2.96408 	 1527
2.96985 	 1760
2.97563 	 1917
2.9814 	 1793
2.98718 	 1562
2.99295 	 1701
2.99873 	 1636
3.0045 	 1727
3.01028 	 1799
3.01605 	 1694
3.02183 	 1685
3.0276 	 1618
3.03338 	 1760
3.03915 	 1694
3.04493 	 1666
3.0507 	 1295
3.05648 	 1367
3.06225 	 2015
3.06803 	 1352
3.07382 	 1798
3.07958 	 1508
3.08537 	 1749
3.09113 	 1700
3.09692 	 1811
3.10268 	 1910
3.10847 	 1375
3.11423 	 1457
3.12002 	 1767
3.12578 	 1603
3.13157 	 1786
3.13733 	 1461
3.14312 	 1578
3.14888 	 1800
3.15467 	 1588
3.16043 	 2026
3.16622 	 1647
3.17198 	 1185
3.17777 	 1638
3.18353 	 1655
3.18932 	 1571
3.1951 	 1866
3.20087 	 1210
3.20665 	 1299
3.21242 	 1250
3.2182 	 1374
3.22397 	 1513
3.22975 	 1791
3.23552 	 1600
3.2413 	 1364
3.24707 	 1630
3.25285 	 1279
3.25862 	 1479
3.2644 	 1633
3.27017 	 1365
3.27595 	 1335
3.28172 	 1414
3.2875 	 1255
3.29327 	 1413
3.29905 	 1454
3.30482 	 1437
3.3106 	 1263
3.31637 	 1583
3.32215 	 1423
3.32793 	 1211
3.3337 	 1529
3.33948 	 1107
3.34525 	 1259
3.35103 	 1266
3.3568 	 1496
3.36258 	 1329
3.36835 	 1453
3.37413 	 1174
3.3799 	 1647
3.38568 	 1284
3.39145 	 1401
3.39723 	 1310
3.403 	 1179
3.40878 	 1191
3.41455 	 1044
3.42033 	 1544
3.4261 	 1392
3.43188 	 1293
3.43765 	 925
3.44343 	 1675
3.4492 	 1251
3.45498 	 999
3.46077 	 1532
3.46653 	 1325
3.47232 	 907
3.47808 	 1215
3.48387 	 1038
3.48963 	 1534
3.49542 	 1584
3.50118 	 1360
3.50697 	 1361
3.51273 	 1485
3.51852 	 1217
3.52428 	 1316
3.53007 	 1178
3.53583 	 1008
3.54162 	 1492
3.54738 	 939
3.55317 	 1329
3.55893 	 929
3.56472 	 1565
3.57048 	 888
3.57627 	 1172
3.58205 	 1393
3.58782 	 1211
3.5936 	 1433
3.59937 	 1098
3.60515 	 851
3.61092 	 1145
3.6167 	 1020
3.62247 	 1033
3.62825 	 1295
3.63402 	 1133
3.6398 	 1201
3.64557 	 1203
3.65135 	 927
3.65712 	 1096
3.6629 	 1222
3.66867 	 847
3.67445 	 825
3.68022 	 1088
3.686 	 1241
3.69177 	 1237
3.69755 	 1129
3.70332 	 1179
3.7091 	 1169
3.71488 	 977
3.72065 	 1300
3.72643 	 1056
3.7322 	 1115
3.73798 	 1189
3.74375 	 1310
3.74953 	 1158
3.7553 	 949
3.76108 	 996
3.76685 	 1088
3.77263 	 745
3.7784 	 619
3.78418 	 1077
3.78995 	 1170
3.79573 	 869
3.8015 	 945
3.80728 	 1064
3.81305 	 1114
3.81883 	 926
3.8246 	 921
3.83038 	 767
3.83617 	 892
3.84193 	 853
3.84772 	 1126
3.85348 	 1051
3.85927 	 1117
3.86503 	 1038
3.87082 	 782
3.87658 	 965
3.88237 	 642
3.88813 	 558
3.89392 	 862
3.89968 	 954
3.90547 	 1008
3.91123 	 1081
3.91702 	 1122
3.92278 	 951
3.92857 	 1067
3.93433 	 991
3.94012 	 922
3.94588 	 1132
3.95167 	 673
3.95743 	 948
3.96322 	 1180
3.969 	 1408
3.97477 	 711
3.98055 	 820
3.98632 	 757
3.9921 	 1199
3.99787 	 889
4.00365 	 757
4.00942 	 966
4.0152 	 1096
4.02097 	 1130
4.02675 	 838
4.03252 	 1006
4.0383 	 909
4.04407 	 782
4.04985 	 937
4.05562 	 870
4.0614 	 541
4.06717 	 786
4.07295 	 757
4.07872 	 1111
4.0845 	 15187
4.09028 	 21960
4.09605 	 21301
4.10183 	 21072
4.1076 	 19144
4.11338 	 17941
4.11915 	 16801
4.12493 	 15275
4.1307 	 13802
4.13648 	 13458
4.14225 	 11802
4.14803 	 11425
4.1538 	 10988
4.15958 	 10475
4.16535 	 9365
4.17113 	 8644
4.1769 	 8368
4.18268 	 8289
4.18845 	 7298
4.19423 	 6904
4.2 	 7110
4.20578 	 6344
4.21155 	 5915
4.21733 	 5559
4.22312 	 5452
4.22888 	 5671
4.23467 	 4974
4.24043 	 5343
4.24622 	 4882
4.25198 	 4783
4.25777 	 4150
4.26353 	 4332
4.26932 	 4365
4.27508 	 3931
4.28087 	 3594
4.28663 	 3755
4.29242 	 4051
4.29818 	 3112
4.30397 	 3602
4.30973 	 3128
4.31552 	 2871
4.32128 	 3373
4.32707 	 3245
4.33283 	 3420
4.33862 	 3025
4.34438 	 3125
4.35017 	 3242
4.35595 	 2890
4.36172 	 2763
4.3675 	 2960
4.37327 	 2264
4.37905 	 2578
4.38482 	 2408
4.3906 	 2443
4.39637 	 2563
4.40215 	 2578
4.40792 	 2436
4.4137 	 2880
4.41947 	 2425
4.42525 	 2006
4.43102 	 2099
4.4368 	 2002
4.44257 	 2423
4.44835 	 2406
4.45412 	 2069
4.4599 	 1862
4.46567 	 2293
4.47145 	 2074
4.47723 	 2049
4.483 	 2365
4.48878 	 1984
4.49455 	 2111
4.50033 	 2101
4.5061 	 2138
4.51188 	 1992
4.51765 	 2108
4.52343 	 1611
4.5292 	 1828
4.53498 	 1670
4.54075 	 2038
4.54653 	 1775
4.5523 	 2174
4.55808 	 1939
4.56385 	 1508
4.56963 	 2065
4.5754 	 1992
4.58118 	 1744
4.58695 	 1965
4.59273 	 1674
4.5985 	 1903
4.60428 	 1732
4.61007 	 1738
4.61583 	 1954
4.62162 	 1667
4.62738 	 1842
4.63317 	 1678
4.63893 	 1459
4.64472 	 1719
4.65048 	 1745
4.65627 	 2085
4.66203 	 1576
4.66782 	 1629
4.67358 	 1676
4.67937 	 1621
4.68513 	 2011
4.69092 	 1208
4.69668 	 1986
4.70247 	 1794
4.70823 	 1660
4.71402 	 1399
4.71978 	 1573
4.72557 	 1676
4.73135 	 2110
4.73712 	 1753
4.7429 	 1938
4.74867 	 1625
4.75445 	 1576
4.76022 	 1943
4.766 	 1630
4.77177 	 1671
4.77755 	 1753
4.78332 	 1430
4.7891 	 1301
4.79487 	 1372
4.80065 	 1457
4.80642 	 1538
4.8122 	 1302
4.81797 	 1379
4.82375 	 1853
4.82952 	 2008
4.8353 	 1953
4.84107 	 1865
4.84685 	 1765
4.85262 	 1268
4.8584 	 1421
4.86418 	 1607
4.86995 	 1540
4.87573 	 1610
4.8815 	 1194
4.88728 	 743
4.89305 	 1560
4.89883 	 1090
4.9046 	 1690
4.91038 	 1623
4.91615 	 1478
4.92193 	 1428
4.9277 	 1304
4.93348 	 1221
4.93925 	 1534
4.94503 	 1237
4.9508 	 1539
4.95658 	 1442
4.96235 	 953
4.96813 	 1567
4.9739 	 1324
4.97968 	 1772
4.98545 	 1134
4.99123 	 1006
4.99702 	 1559
5.00278 	 1347
5.00857 	 1181
5.01433 	 1689
5.02012 	 969
5.02588 	 1493
5.03167 	 1276
5.03743 	 1519
5.04322 	 1479
5.04898 	 1452
5.05477 	 1467
5.06053 	 1353
5.06632 	 1283
5.07208 	 1504
5.07787 	 1129
5.08363 	 1451
5.08942 	 1132
5.09518 	 1445
5.10097 	 1081
5.10673 	 1413
5.11252 	 1091
5.1183 	 1355
5.12407 	 1572
5.12985 	 1320
5.13562 	 1622
5.1414 	 1304
5.14717 	 1037
5.15295 	 1682
5.15872 	 1349
5.1645 	 1161
5.17027 	 1153
5.17605 	 1724
5.18182 	 1410
5.1876 	 1423
5.19337 	 1185
5.19915 	 1361
5.20492 	 1535
5.2107 	 1473
5.21647 	 1642
5.22225 	 1215
5.22802 	 1628
5.2338 	 1238
5.23957 	 1221
5.24535 	 1460
5.25113 	 1576
5.2569 	 1491
5.26268 	 1041
5.26845 	 1726
5.27423 	 1316
5.28 	 1163
5.28578 	 1552
5.29155 	 1476
5.29733 	 1320
5.3031 	 1319
5.30888 	 1254
5.31465 	 1234
5.32043 	 1177
5.3262 	 1397
5.33198 	 1535
5.33775 	 1112
5.34353 	 1354
5.3493 	 1617
5.35508 	 1240
5.36085 	 1512
5.36663 	 1405
5.3724 	 1450
5.37818 	 972
5.38397 	 1492
5.38973 	 1231
5.39552 	 1196
5.40128 	 1100
5.40707 	 1142
5.41283 	 1396
5.41862 	 1371
5.42438 	 1175
5.43017 	 906
5.43593 	 1319
5.44172 	 1411
5.44748 	 1293
5.45327 	 1577
5.45903 	 1160
5.46482 	 1297
5.47058 	 1174
5.47637 	 1501
5.48213 	 1359
5.48792 	 1598
5.49368 	 1304
5.49947 	 1662
5.50525 	 1795
5.51102 	 1377
5.5168 	 1683
5.52257 	 1438
5.52835 	 1340
5.53412 	 1346
5.5399 	 1221
5.54567 	 1773
5.55145 	 1473
5.55722 	 1559
5.563 	 1602
5.56877 	 1672
5.57455 	 1389
5.58032 	 1503
5.5861 	 1715
5.59187 	 1267
5.59765 	 940
5.60342 	 1678
5.6092 	 1508
5.61497 	 1031
5.62075 	 1329
5.62652 	 1435
5.6323 	 1583
5.63808 	 1116
5.64385 	 1884
5.64963 	 1915
5.6554 	 1780
5.66118 	 1714
5.66695 	 1731
5.67273 	 1771
5.6785 	 1725
5.68428 	 1555
5.69005 	 1370
5.69583 	 2315
5.7016 	 1898
5.70738 	 1657
5.71315 	 1696
5.71893 	 1423
5.7247 	 1949
5.73048 	 2027
5.73625 	 1963
5.74203 	 1939
5.7478 	 1408
5.75358 	 1968
5.75937 	 1620
5.76513 	 1452
5.77092 	 1306
5.77668 	 1816
5.78247 	 1990
5.78823 	 1698
5.79402 	 2209
5.79978 	 1941
5.80557 	 1707
5.81133 	 1766
5.81712 	 1648
5.82288 	 1644
5.82867 	 1569
5.83443 	 2039
5.84022 	 2084
5.84598 	 1881
5.85177 	 1451
5.85753 	 1460
5.86332 	 1650
5.86908 	 1551
5.87487 	 1602
5.88063 	 1969
5.88642 	 1866
5.8922 	 1884
5.89797 	 1629
5.90375 	 1490
5.90952 	 1904
5.9153 	 1275
5.92107 	 1897
5.92685 	 1682
5.93262 	 1447
5.9384 	 1392
5.94417 	 1543
5.94995 	 1172
5.95572 	 1460
5.9615 	 1706
5.96727 	 1097
5.97305 	 1809
5.97882 	 1381
5.9846 	 1327
5.99037 	 1084
5.99615 	 1466
6.00192 	 1378
6.0077 	 1430
6.01348 	 1539
6.01925 	 1494
6.02503 	 1405
6.0308 	 1201
6.03658 	 1101
6.04235 	 1684
6.04813 	 39659
6.0539 	 804800
6.05968 	 710198
6.06545 	 332137
6.07123 	 177387
6.077 	 111974
6.08278 	 76583
6.08855 	 56632
6.09433 	 46446
6.1001 	 36478
6.10588 	 28501
6.11165 	 24617
6.11743 	 20638
6.1232 	 18709
6.12898 	 16301
6.13475 	 15279
6.14053 	 14271
6.14632 	 11490
6.15208 	 9680
6.15787 	 9179
6.16363 	 8368
6.16942 	 8176
6.17518 	 8150
6.18097 	 7127
6.18673 	 6259
6.19252 	 6139
6.19828 	 6145
6.20407 	 5336
6.20983 	 5187
6.21562 	 4792
6.22138 	 4836
6.22717 	 4768
6.23293 	 4748
6.23872 	 4523
6.24448 	 4657
6.25027 	 4289
6.25603 	 6314
6.26182 	 6240
6.26758 	 5392
6.27337 	 4257
6.27915 	 3266
6.28492 	 3266
6.2907 	 66715
6.29647 	 730738
6.30225 	 1172881
6.30802 	 446207
6.3138 	 75398
6.31957 	 22304
6.32535 	 12539
6.33112 	 9137
6.3369 	 7199
6.34267 	 5880
6.34845 	 4816
6.35422 	 4806
6.36 	 3696
6.36577 	 3720
6.37155 	 3575
6.37732 	 3111
6.3831 	 3456
6.38887 	 3376
6.39465 	 3251
6.40043 	 3070
6.4062 	 3029
6.41198 	 2897
6.41775 	 2738
6.42353 	 2760
6.4293 	 3172
6.43508 	 2703
6.44085 	 2262
6.44663 	 2462
6.4524 	 2350
6.45818 	 2473
6.46395 	 2291
6.46973 	 2343
6.4755 	 2673
6.48128 	 2462
6.48705 	 3299
6.49283 	 6578
6.4986 	 7774
6.50438 	 5101
6.51015 	 4047
6.51593 	 3865
6.5217 	 3734
6.52748 	 4301
6.53327 	 2779
6.53903 	 2505
6.54482 	 2608
6.55058 	 1999
6.55637 	 2120
6.56213 	 2381
6.56792 	 2378
6.57368 	 1740
6.57947 	 2382
6.58523 	 1896
6.59102 	 2515
6.59678 	 1996
6.60257 	 1609
6.60833 	 2219
6.61412 	 1793
6.61988 	 1825
6.62567 	 860
6.63143 	 1422
6.63722 	 1812
6.64298 	 1517
6.64877 	 1821
6.65455 	 1305
6.66032 	 1885
6.6661 	 2131
6.67187 	 1373
6.67765 	 1839
6.68342 	 1672
6.6892 	 1895
6.69497 	 1568
6.70075 	 2247
6.70652 	 1393
6.7123 	 1615
6.71807 	 1637
6.72385 	 1963
6.72962 	 1459
6.7354 	 1848
6.74117 	 2335
6.74695 	 1941
6.75272 	 1353
6.7585 	 1268
6.76427 	 1264
6.77005 	 1380
6.77582 	 1428
6.7816 	 1326
6.78738 	 1593
6.79315 	 930
6.79893 	 1109
6.8047 	 1126
6.81048 	 1028
6.81625 	 1360
6.82203 	 1453
6.8278 	 1395
6.83358 	 1231
6.83935 	 1183
6.84513 	 1451
6.8509 	 1239
6.85668 	 820
6.86245 	 1227
6.86823 	 1114
6.874 	 1129
6.87978 	 895
6.88555 	 1240
6.89133 	 751
6.8971 	 1130
6.90288 	 938
6.90867 	 1178
6.91443 	 751
6.92022 	 1429
6.92598 	 1020
6.93177 	 1199
6.93753 	 1600
6.94332 	 1334
6.94908 	 1206
6.95487 	 1603
6.96063 	 1176
6.96642 	 1271
6.97218 	 1104
6.97797 	 1047
6.98373 	 622
6.98952 	 726
6.99528 	 969
7.00107 	 869
7.00683 	 1307
7.01262 	 1151
7.01838 	 797
7.02417 	 1183
7.02993 	 779
7.03572 	 1169
7.0415 	 1533
7.04727 	 1064
7.05305 	 757
7.05882 	 1025
7.0646 	 909
7.07037 	 736
7.07615 	 882
7.08192 	 1354
7.0877 	 703
7.09347 	 557
7.09925 	 1297
7.10502 	 1111
7.1108 	 1002
7.11657 	 1074
7.12235 	 689
7.12812 	 888
7.1339 	 1704
7.13967 	 1286
7.14545 	 1773
7.15122 	 3031
7.157 	 3317
7.16277 	 4155
7.16855 	 6137
7.17433 	 7570
7.1801 	 10631
7.18588 	 12085
7.19165 	 14881
7.19743 	 17869
7.2032 	 21303
7.20898 	 26257
7.21475 	 31039
7.22053 	 34621
7.2263 	 39380
7.23208 	 46838
7.23785 	 51576
7.24363 	 55939
7.2494 	 62131
7.25518 	 68968
7.26095 	 74673
7.26673 	 83690
7.2725 	 88206
7.27828 	 95220
7.28405 	 104679
7.28983 	 115331
7.29562 	 135125
7.30138 	 146854
7.30717 	 166283
7.31293 	 258481
7.31872 	 968131
7.32448 	 1157704
7.33027 	 316194
7.33603 	 117734
7.34182 	 74195
7.34758 	 55416
7.35337 	 47595
7.35913 	 40235
7.36492 	 34397
7.37068 	 31693
7.37647 	 28678
7.38223 	 27293
7.38802 	 26354
7.39378 	 24727
7.39957 	 22869
7.40533 	 21474
7.41112 	 19854
7.41688 	 17705
7.42267 	 16100
7.42845 	 15834
7.43422 	 14881
7.44 	 13981
7.44577 	 12732
7.45155 	 10916
7.45732 	 11395
7.4631 	 10542
7.46887 	 10356
7.47465 	 9548
7.48042 	 9880
7.4862 	 9846
7.49197 	 8295
7.49775 	 9173
7.50352 	 8435
7.5093 	 8306
7.51507 	 8755
7.52085 	 8001
7.52662 	 7748
7.5324 	 7073
7.53817 	 7417
7.54395 	 6945
7.54973 	 7269
7.5555 	 7514
7.56128 	 7147
7.56705 	 6580
7.57283 	 6318
7.5786 	 6997
7.58438 	 6432
7.59015 	 5839
7.59593 	 6573
7.6017 	 5673
7.60748 	 5926
7.61325 	 6195
7.61903 	 5244
7.6248 	 5975
7.63058 	 5946
7.63635 	 5743
7.64213 	 5589
7.6479 	 4623
7.65368 	 6041
7.65945 	 5773
7.66523 	 5791
7.671 	 6036
7.67678 	 5585
7.68257 	 5491
7.68833 	 6234
7.69412 	 5749
7.69988 	 4957
7.70567 	 4913
7.71143 	 5464
7.71722 	 5308
7.72298 	 4873
7.72877 	 5713
7.73453 	 5544
7.74032 	 5575
7.74608 	 4732
7.75187 	 5368
7.75763 	 4744
7.76342 	 4940
7.76918 	 5272
7.77497 	 6807
7.78073 	 7235
7.78652 	 7561
7.79228 	 10437
7.79807 	 8867
7.80383 	 8021
7.80962 	 7381
7.8154 	 6174
7.82117 	 5539
7.82695 	 5552
7.83272 	 4976
7.8385 	 5425
7.84427 	 5239
7.85005 	 5239
7.85582 	 5194
7.8616 	 4858
7.86737 	 5512
7.87315 	 5417
7.87892 	 4458
7.8847 	 4715
7.89047 	 4869
7.89625 	 5008
7.90202 	 4765
7.9078 	 4747
7.91357 	 4344
7.91935 	 4527
7.92512 	 4255
7.9309 	 5124
7.93668 	 3835
7.94245 	 3930
7.94823 	 4474
7.954 	 4175
7.95978 	 3886
7.96555 	 4194
7.97133 	 3450
7.9771 	 4495
7.98288 	 3699
7.98865 	 3998
7.99443 	 4034
8.0002 	 4292
8.00598 	 3592
8.01175 	 3011
8.01753 	 3950
8.0233 	 3987
8.02908 	 3871
8.03485 	 3988
8.04063 	 3456
8.0464 	 3589
8.05218 	 3492
8.05795 	 3520
8.06373 	 4483
8.06952 	 4070
8.07528 	 3971
8.08107 	 3406
8.08683 	 3416
8.09262 	 3206
8.09838 	 3341
8.10417 	 3139
8.10993 	 3438
8.11572 	 3477
8.12148 	 3032
8.12727 	 4170
8.13303 	 3996
8.13882 	 3801
8.14458 	 3247
8.15037 	 3905
8.15613 	 3131
8.16192 	 3654
8.16768 	 3507
8.17347 	 3606
8.17923 	 3103
8.18502 	 3230
8.19078 	 3025
8.19657 	 3524
8.20235 	 3053
8.20812 	 3795
8.2139 	 3009
8.21967 	 2887
8.22545 	 2899
8.23122 	 2769
8.237 	 3240
8.24277 	 2833
8.24855 	 2886
8.25432 	 2875
8.2601 	 3102
8.26587 	 3057
8.27165 	 2943
8.27742 	 2444
8.2832 	 2812
8.28897 	 2804
8.29475 	 2218
8.30052 	 2591
8.3063 	 2404
8.31207 	 2149
8.31785 	 2949
8.32363 	 2979
8.3294 	 3099
8.33518 	 2655
8.34095 	 2837
8.34673 	 2422
8.3525 	 2444
8.35828 	 2080
8.36405 	 2866
8.36983 	 2236
8.3756 	 2121
8.38138 	 2447
8.38715 	 2304
8.39293 	 2615
8.3987 	 1880
8.40448 	 2550
8.41025 	 2262
8.41603 	 2341
8.4218 	 2018
8.42758 	 2168
8.43335 	 2466
8.43913 	 1613
8.4449 	 2761
8.45068 	 2194
8.45647 	 2099
8.46223 	 1905
8.46802 	 2501
8.47378 	 2099
8.47957 	 2026
8.48533 	 2180
8.49112 	 2399
8.49688 	 1726
8.50267 	 2159
8.50843 	 1849
8.51422 	 1560
8.51998 	 1632
8.52577 	 1907
8.53153 	 1860
8.53732 	 2245
8.54308 	 1908
8.54887 	 1801
8.55463 	 1838
8.56042 	 1504
8.56618 	 2104
8.57197 	 2029
8.57775 	 2081
8.58352 	 1415
8.5893 	 1590
8.59507 	 1136
8.60085 	 1522
8.60662 	 1767
8.6124 	 1324
8.61817 	 1751
8.62395 	 1780
8.62972 	 1531
8.6355 	 1438
8.64127 	 1762
8.64705 	 1431
8.65282 	 1520
8.6586 	 1097
8.66437 	 1462
8.67015 	 1457
8.67592 	 1742
8.6817 	 1772
8.68747 	 1188
8.69325 	 1676
8.69902 	 2133
8.7048 	 909
8.71058 	 1105
8.71635 	 984
8.72213 	 1175
8.7279 	 749
8.73368 	 949
8.73945 	 1063
8.74523 	 1175
8.751 	 1588
8.75678 	 1208
8.76255 	 832
8.76833 	 1637
8.7741 	 1085
8.77988 	 1105
8.78565 	 779
8.79143 	 944
8.7972 	 1251
8.80298 	 877
8.80875 	 621
8.81453 	 1303
8.8203 	 1107
8.82608 	 1374
8.83187 	 1156
8.83763 	 1149
8.84342 	 947
8.84918 	 757
8.85497 	 1285
8.86073 	 1352
8.86652 	 1015
8.87228 	 1181
8.87807 	 1246
8.88383 	 1280
8.88962 	 1048
8.89538 	 865
8.90117 	 1035
8.90693 	 851
8.91272 	 1089
8.91848 	 878
8.92427 	 796
8.93003 	 757
8.93582 	 850
8.94158 	 949
8.94737 	 1038
8.95313 	 811
8.95892 	 760
8.9647 	 924
8.97047 	 933
8.97625 	 1155
8.98202 	 402
8.9878 	 1192
8.99357 	 1281
8.99935 	 831
9.00512 	 885
9.0109 	 903
9.01667 	 1088
9.02245 	 607
9.02822 	 897
9.034 	 1075
9.03977 	 1155
9.04555 	 734
9.05132 	 957
9.0571 	 705
9.06287 	 899
9.06865 	 824
9.07442 	 868
9.0802 	 842
9.08597 	 927
9.09175 	 823
9.09753 	 876
9.1033 	 845
9.10908 	 727
9.11485 	 363
9.12063 	 1159
9.1264 	 620
9.13218 	 1337
9.13795 	 919
9.14373 	 985
9.1495 	 911
9.15528 	 1052
9.16105 	 668
9.16683 	 720
9.1726 	 485
9.17838 	 582
9.18415 	 913
9.18993 	 745
9.1957 	 1029
9.20148 	 900
9.20725 	 523
9.21303 	 669
9.21882 	 902
9.22458 	 979
9.23037 	 528
9.23613 	 623
9.24192 	 631
9.24768 	 637
9.25347 	 893
9.25923 	 1032
9.26502 	 743
9.27078 	 1161
9.27657 	 839
9.28233 	 1011
9.28812 	 738
9.29388 	 589
9.29967 	 513
9.30543 	 712
9.31122 	 1072
9.31698 	 840
9.32277 	 1140
9.32853 	 749
9.33432 	 885
9.34008 	 625
9.34587 	 1010
9.35165 	 793
9.35742 	 1037
9.3632 	 589
9.36897 	 785
9.37475 	 749
9.38052 	 1024
9.3863 	 873
9.39207 	 814
9.39785 	 1042
9.40362 	 912
9.4094 	 526
9.41517 	 555
9.42095 	 987
9.42672 	 387
9.4325 	 644
9.43827 	 764
9.44405 	 995
9.44982 	 989
9.4556 	 945
9.46137 	 719
9.46715 	 804
9.47293 	 989
9.4787 	 652
9.48448 	 843
9.49025 	 569
9.49603 	 287
9.5018 	 746
9.50758 	 1096
9.51335 	 917
9.51913 	 850
9.5249 	 719
9.53068 	 802
9.53645 	 641
9.54223 	 763
9.548 	 694
9.55378 	 922
9.55955 	 825
9.56533 	 853
9.5711 	 1110
9.57688 	 821
9.58265 	 624
9.58843 	 515
9.5942 	 772
9.59998 	 1058
9.60577 	 843
9.61153 	 1072
9.61732 	 858
9.62308 	 864
9.62887 	 1171
9.63463 	 830
9.64042 	 1142
9.64618 	 775
9.65197 	 962
9.65773 	 1079
9.66352 	 639
9.66928 	 1122
9.67507 	 786
9.68083 	 485
9.68662 	 605
9.69238 	 945
9.69817 	 915
9.70393 	 1211
9.70972 	 1095
9.71548 	 642
9.72127 	 617
9.72703 	 449
9.73282 	 845
9.7386 	 1155
9.74437 	 995
9.75015 	 862
9.75592 	 822
9.7617 	 1108
9.76747 	 1088
9.77325 	 947
9.77902 	 773
9.7848 	 1057
9.79057 	 1154
9.79635 	 1149
9.80212 	 1364
9.8079 	 1399
9.81367 	 1284
9.81945 	 1089
9.82522 	 1198
9.831 	 1426
9.83677 	 1094
9.84255 	 1237
9.84832 	 1399
9.8541 	 1550
9.85988 	 1662
9.86565 	 1295
9.87143 	 1267
9.8772 	 1276
9.88298 	 1699
9.88875 	 1434
9.89453 	 991
9.9003 	 1218
9.90608 	 717
9.91185 	 1317
9.91763 	 1447
9.9234 	 1348
9.92918 	 1313
9.93495 	 1210
9.94073 	 1095
9.9465 	 1363
9.95228 	 1246
9.95805 	 1480
9.96383 	 1462
9.9696 	 1797
9.97538 	 1278
9.98115 	 1644
9.98693 	 1057
9.99272 	 1412
9.99848 	 1758
10.0043 	 1436
10.01 	 1603
10.0158 	 1711
10.0216 	 1236
10.0274 	 1259
10.0331 	 1491
10.0389 	 1122
10.0447 	 1598
10.0505 	 1341
10.0562 	 1241
10.062 	 1718
10.0678 	 1467
10.0736 	 1472
10.0793 	 1911
10.0851 	 1533
10.0909 	 1453
10.0967 	 1237
10.1024 	 1583
10.1082 	 1853
10.114 	 1735
10.1198 	 1932
10.1256 	 1611
10.1313 	 1558
10.1371 	 2354
10.1429 	 4149
10.1487 	 41021
10.1544 	 84035
10.1602 	 52650
10.166 	 21921
10.1718 	 12768
10.1775 	 8135
10.1833 	 6893
10.1891 	 4997
10.1949 	 4821
10.2006 	 3423
10.2064 	 2784
10.2122 	 3244
10.218 	 3220
10.2237 	 2772
10.2295 	 2925
10.2353 	 2584
10.2411 	 2531
10.2468 	 2818
10.2526 	 2179
10.2584 	 2366
10.2642 	 2452
10.2699 	 10105
10.2757 	 291203
10.2815 	 2344127
10.2873 	 3653540
10.293 	 1253757
10.2988 	 441922
10.3046 	 255459
10.3104 	 170793
10.3161 	 126934
10.3219 	 95966
10.3277 	 77998
10.3335 	 63161
10.3392 	 53839
10.345 	 46128
10.3508 	 39315
10.3566 	 33542
10.3623 	 28821
10.3681 	 25964
10.3739 	 23219
10.3797 	 20591
10.3854 	 18471
10.3912 	 15969
10.397 	 14685
10.4028 	 13876
10.4085 	 13154
10.4143 	 11741
10.4201 	 11433
10.4259 	 10380
10.4316 	 9288
10.4374 	 9016
10.4432 	 8132
10.449 	 7971
10.4547 	 8667
10.4605 	 6939
10.4663 	 6977
10.4721 	 7380
10.4778 	 7671
10.4836 	 6641
10.4894 	 7265
10.4952 	 6754
10.501 	 5586
10.5067 	 5666
10.5125 	 6956
10.5183 	 5528
10.5241 	 5486
10.5298 	 5297
10.5356 	 5753
10.5414 	 5527
10.5472 	 6051
10.5529 	 4573
10.5587 	 5250
10.5645 	 5635
10.5703 	 5843
10.576 	 5257
10.5818 	 5120
10.5876 	 4816
10.5934 	 5242
10.5991 	 5155
10.6049 	 5235
10.6107 	 5315
10.6165 	 5648
10.6222 	 5573
10.628 	 4660
10.6338 	 5551
10.6396 	 5341
10.6453 	 5712
10.6511 	 5892
10.6569 	 5072
10.6627 	 5472
10.6684 	 5373
10.6742 	 4762
10.68 	 5469
10.6858 	 4342
10.6915 	 4735
10.6973 	 5479
10.7031 	 4754
10.7089 	 5715
10.7146 	 5792
10.7204 	 5242
10.7262 	 5724
10.732 	 5618
10.7377 	 5834
10.7435 	 5614
10.7493 	 5539
10.7551 	 5604
10.7608 	 5773
10.7666 	 6423
10.7724 	 5755
10.7782 	 5984
10.7839 	 6297
10.7897 	 6133
10.7955 	 5575
10.8013 	 6165
10.807 	 6056
10.8128 	 5637
10.8186 	 6011
10.8244 	 6545
10.8301 	 6284
10.8359 	 6492
10.8417 	 6835
10.8475 	 6642
10.8532 	 6827
10.859 	 6143
10.8648 	 7046
10.8706 	 6443
10.8763 	 7094
10.8821 	 6874
10.8879 	 6449
10.8937 	 6948
10.8995 	 6553
10.9052 	 6906
10.911 	 7012
10.9168 	 8327
10.9226 	 7271
10.9283 	 7824
10.9341 	 7929
10.9399 	 8034
10.9457 	 7452
10.9514 	 7772
10.9572 	 8286
10.963 	 8468
10.9688 	 7775
10.9745 	 7745
10.9803 	 7849
10.9861 	 8310
10.9919 	 8145
10.9976 	 8163
11.0034 	 7983
11.0092 	 8224
11.015 	 8821
11.0207 	 7969
11.0265 	 8917
11.0323 	 9144
11.0381 	 8386
11.0438 	 9332
11.0496 	 9618
11.0554 	 9441
11.0612 	 9806
11.0669 	 9608
11.0727 	 8406
11.0785 	 9235
11.0843 	 10168
11.09 	 9386
11.0958 	 10877
11.1016 	 9337
11.1074 	 10349
11.1131 	 9898
11.1189 	 10195
11.1247 	 10764
11.1305 	 10232
11.1362 	 10525
11.142 	 11194
11.1478 	 10735
11.1536 	 11723
11.1593 	 11344
11.1651 	 10637
11.1709 	 11981
11.1767 	 10581
11.1824 	 12312
11.1882 	 12388
11.194 	 12164
11.1998 	 13047
11.2055 	 12689
11.2113 	 11805
11.2171 	 12435
11.2229 	 12871
11.2286 	 12071
11.2344 	 12259
11.2402 	 13291
11.246 	 12833
11.2517 	 13338
11.2575 	 12911
11.2633 	 13723
11.2691 	 13586
11.2749 	 12965
11.2806 	 13458
11.2864 	 13164
11.2922 	 14252
11.298 	 13496
11.3037 	 14454
11.3095 	 14392
11.3153 	 15898
11.3211 	 14689
11.3268 	 16127
11.3326 	 15037
11.3384 	 14719
11.3442 	 15103
11.3499 	 15996
11.3557 	 16173
11.3615 	 15276
11.3673 	 17376
11.373 	 15582
11.3788 	 15840
11.3846 	 15846
11.3904 	 15947
11.3961 	 17344
11.4019 	 17045
11.4077 	 17021
11.4135 	 18159
11.4192 	 18124
11.425 	 18294
11.4308 	 18134
11.4366 	 18587
11.4423 	 17909
11.4481 	 20619
11.4539 	 19693
11.4597 	 19210
11.4654 	 18758
11.4712 	 19922
11.477 	 19940
11.4828 	 20302
11.4885 	 20707
11.4943 	 20860
11.5001 	 19795
11.5059 	 21602
11.5116 	 21032
11.5174 	 21890
11.5232 	 20847
11.529 	 22406
11.5347 	 22917
11.5405 	 23949
11.5463 	 22859
11.5521 	 21496
11.5578 	 23670
11.5636 	 24089
11.5694 	 23724
11.5752 	 25759
11.5809 	 25105
11.5867 	 24836
11.5925 	 24888
11.5983 	 25753
11.604 	 23826
11.6098 	 26808
11.6156 	 25867
11.6214 	 26279
11.6271 	 27765
11.6329 	 26897
11.6387 	 26977
11.6445 	 27396
11.6503 	 28858
11.656 	 29464
11.6618 	 30611
11.6676 	 29021
11.6734 	 30256
11.6791 	 29674
11.6849 	 29187
11.6907 	 30228
11.6965 	 30720
11.7022 	 30191
11.708 	 32293
11.7138 	 31721
11.7196 	 32246
11.7253 	 31845
11.7311 	 32355
11.7369 	 32265
11.7427 	 32871
11.7484 	 34684
11.7542 	 33085
11.76 	 33555
11.7658 	 34180
11.7715 	 35169
11.7773 	 36211
11.7831 	 37383
11.7889 	 36911
11.7946 	 37103
11.8004 	 34191
11.8062 	 37910
11.812 	 37547
11.8177 	 37987
11.8235 	 38036
11.8293 	 38135
11.8351 	 38459
11.8408 	 39130
11.8466 	 38441
11.8524 	 40961
11.8582 	 39892
11.8639 	 39945
11.8697 	 41184
11.8755 	 40027
11.8813 	 39706
11.887 	 43164
11.8928 	 42120
11.8986 	 43603
11.9044 	 41749
11.9101 	 43785
11.9159 	 42963
11.9217 	 44195
11.9275 	 43644
11.9332 	 43114
11.939 	 44616
11.9448 	 43664
11.9506 	 46278
11.9563 	 46534
11.9621 	 46913
11.9679 	 46578
11.9737 	 45342
11.9794 	 46190
11.9852 	 46406
11.991 	 44734
11.9968 	 48719
12.0025 	 47553
12.0083 	 45838
12.0141 	 46847
12.0199 	 48215
12.0256 	 48398
12.0314 	 49602
12.0372 	 50413
12.043 	 50530
12.0488 	 49688
12.0545 	 49464
12.0603 	 50163
12.0661 	 49277
12.0719 	 51592
12.0776 	 52934
12.0834 	 52509
12.0892 	 52239
12.095 	 53537
12.1007 	 54697
12.1065 	 53767
12.1123 	 53668
12.1181 	 52616
12.1238 	 53314
12.1296 	 53508
12.1354 	 53191
12.1412 	 55596
12.1469 	 53122
12.1527 	 54072
12.1585 	 55061
12.1643 	 55832
12.17 	 55357
12.1758 	 53089
12.1816 	 54124
12.1874 	 54515
12.1931 	 53133
12.1989 	 56217
12.2047 	 58048
12.2105 	 57164
12.2162 	 57804
12.222 	 58885
12.2278 	 57470
12.2336 	 59920
12.2393 	 57256
12.2451 	 58491
12.2509 	 58153
12.2567 	 58370
12.2624 	 60162
12.2682 	 57975
12.274 	 58226
12.2798 	 59497
12.2855 	 59431
12.2913 	 60007
12.2971 	 61920
12.3029 	 60043
12.3086 	 60934
12.3144 	 60627
12.3202 	 59831
12.326 	 62834
12.3317 	 60461
12.3375 	 62879
12.3433 	 60093
12.3491 	 60804
12.3548 	 59563
12.3606 	 62237
12.3664 	 61603
12.3722 	 61357
12.3779 	 63645
12.3837 	 61056
12.3895 	 61793
12.3953 	 62730
12.401 	 61736
12.4068 	 63290
12.4126 	 62153
12.4184 	 61839
12.4242 	 63458
12.4299 	 62588
12.4357 	 62378
12.4415 	 64289
12.4473 	 66006
12.453 	 63709
12.4588 	 63827
12.4646 	 64233
12.4704 	 64695
12.4761 	 63144
12.4819 	 61477
12.4877 	 62367
12.4935 	 64091
12.4992 	 63633
12.505 	 63843
12.5108 	 64235
12.5166 	 62164
12.5223 	 62436
12.5281 	 64306
12.5339 	 65275
12.5397 	 65009
12.5454 	 64628
12.5512 	 64808
12.557 	 63835
12.5628 	 64031
12.5685 	 65369
12.5743 	 63060
12.5801 	 62700
12.5859 	 64719
12.5916 	 63781
12.5974 	 63748
12.6032 	 64521
12.609 	 63781
12.6147 	 63470
12.6205 	 65166
12.6263 	 64518
12.6321 	 64796
12.6378 	 64811
12.6436 	 64611
12.6494 	 63265
12.6552 	 64926
12.6609 	 65710
12.6667 	 63925
12.6725 	 65777
12.6783 	 65714
12.684 	 65367
12.6898 	 64897
12.6956 	 64584
12.7014 	 64535
12.7071 	 65507
