D:\MassHunter\GCMS\1\data\Elizabeth\B06\24.06.06\RAU-R505-11.D 06 Jun 24  06:33 pm
Start of data points
1.09298,28245482
1.09875,27641624
1.10453,26717604
1.1103,25975660
1.11608,25467946
1.12187,24842824
1.12763,24281442
1.13342,23747894
1.13918,23361210
1.14497,22983892
1.15073,22868242
1.15652,26341694
1.16228,673283
1.16807,540121
1.17383,472266
1.17962,454062
1.18538,510724
1.19117,685581
1.19693,1016299
1.20272,1372810
1.20848,2022898
1.21427,1481180
1.22003,308506
1.22582,216607
1.23158,202802
1.23737,187214
1.24313,177971
1.24892,276980
1.2547,654185
1.26047,1295994
1.26625,851196
1.27202,188779
1.2778,126817
1.28357,116526
1.28935,109648
1.29512,102070
1.3009,96469
1.30667,92285
1.31245,88712
1.31822,85934
1.324,107844
1.32977,252860
1.33555,437249
1.34132,182037
1.3471,77079
1.35287,63767
1.35865,59723
1.36442,56428
1.3702,52785
1.37597,51006
1.38175,47738
1.38753,48022
1.3933,44706
1.39908,43920
1.40485,40123
1.41063,40386
1.4164,38779
1.42218,37414
1.42795,34924
1.43373,34233
1.4395,43545
1.44528,193562
1.45105,231832
1.45683,147839
1.4626,86780
1.46838,41075
1.47415,29308
1.47993,27757
1.4857,86871
1.49148,572832
1.49725,1160724
1.50303,634737
1.50882,165738
1.51458,52270
1.52037,26432
1.52613,25111
1.53192,31315
1.53768,29192
1.54347,21806
1.54923,18803
1.55502,18066
1.56078,16772
1.56657,16623
1.57233,16021
1.57812,14744
1.58388,13974
1.58967,14988
1.59543,13717
1.60122,14398
1.60698,13378
1.61277,12874
1.61853,13654
1.62432,12359
1.63008,12528
1.63587,12506
1.64165,11892
1.64742,11497
1.6532,11852
1.65897,11038
1.66475,10924
1.67052,11896
1.6763,19900
1.68207,23397
1.68785,17351
1.69362,12405
1.6994,10530
1.70517,9041
1.71095,9078
1.71672,9500
1.7225,9114
1.72827,10118
1.73405,91005
1.73982,1264615
1.7456,3149134
1.75137,2540835
1.75715,1038486
1.76293,341836
1.7687,110654
1.77448,36383
1.78025,20863
1.78603,45182
1.7918,62974
1.79758,45088
1.80335,38320
1.80913,43568
1.8149,30621
1.82068,17827
1.82645,10647
1.83223,7730
1.838,7391
1.84378,11867
1.84955,32311
1.85533,55806
1.8611,47097
1.86688,30440
1.87265,36505
1.87843,43211
1.8842,30084
1.88998,15957
1.89577,9302
1.90153,6722
1.90732,5646
1.91308,5396
1.91887,5849
1.92463,5866
1.93042,5373
1.93618,5144
1.94197,5435
1.94773,6914
1.95352,15260
1.95928,31165
1.96507,32418
1.97083,19877
1.97662,10418
1.98238,9355
1.98817,15037
1.99393,22133
1.99972,20249
2.00548,12423
2.01127,9428
2.01705,16163
2.02282,29558
2.0286,27527
2.03437,16489
2.04015,8413
2.04592,5645
2.0517,4467
2.05747,4432
2.06325,4187
2.06902,4293
2.0748,4102
2.08057,4349
2.08635,4300
2.09212,4715
2.0979,4234
2.10367,3775
2.10945,4105
2.11522,4282
2.121,4198
2.12677,3842
2.13255,3728
2.13832,4080
2.1441,3726
2.14988,4024
2.15565,4000
2.16143,4696
2.1672,4188
2.17298,4030
2.17875,4015
2.18453,3785
2.1903,3732
2.19608,3764
2.20185,3620
2.20763,3747
2.2134,3824
2.21918,3537
2.22495,3578
2.23073,3580
2.2365,3951
2.24228,3919
2.24805,2998
2.25383,3284
2.2596,3475
2.26538,3168
2.27115,2909
2.27693,3214
2.28272,3017
2.28848,3087
2.29427,2922
2.30003,3520
2.30582,2987
2.31158,2944
2.31737,2979
2.32313,2846
2.32892,3152
2.33468,3353
2.34047,2782
2.34623,2950
2.35202,3120
2.35778,3135
2.36357,3133
2.36933,3464
2.37512,2845
2.38088,2902
2.38667,2869
2.39243,2775
2.39822,2631
2.404,2722
2.40977,2755
2.41555,2742
2.42132,2910
2.4271,3032
2.43287,2624
2.43865,2469
2.44442,2651
2.4502,2751
2.45597,2828
2.46175,2438
2.46752,3034
2.4733,2982
2.47907,2603
2.48485,2667
2.49062,2470
2.4964,2287
2.50217,2508
2.50795,3004
2.51372,2439
2.5195,2471
2.52527,2501
2.53105,2542
2.53683,2477
2.5426,2208
2.54838,2384
2.55415,2333
2.55993,2351
2.5657,2365
2.57148,2704
2.57725,2696
2.58303,2385
2.5888,2565
2.59458,2353
2.60035,2536
2.60613,2468
2.6119,2539
2.61768,2403
2.62345,2536
2.62923,2737
2.635,2256
2.64078,2071
2.64655,2641
2.65233,2453
2.65812,2221
2.66388,2223
2.66967,2457
2.67543,2142
2.68122,2415
2.68698,2027
2.69277,2040
2.69853,2484
2.70432,2376
2.71008,2227
2.71587,2121
2.72163,2230
2.72742,2051
2.73318,2199
2.73897,1877
2.74473,1971
2.75052,1928
2.75628,2021
2.76207,1816
2.76783,2043
2.77362,2098
2.77938,1994
2.78517,1898
2.79095,2089
2.79672,2062
2.8025,1910
2.80827,2088
2.81405,2032
2.81982,1772
2.8256,2308
2.83137,2155
2.83715,1834
2.84292,1991
2.8487,2065
2.85447,2326
2.86025,1985
2.86602,2133
2.8718,2077
2.87757,1808
2.88335,1969
2.88912,2244
2.8949,2259
2.90067,1880
2.90645,2225
2.91223,1935
2.918,1927
2.92378,1932
2.92955,1927
2.93533,1657
2.9411,1698
2.94688,2262
2.95265,1890
2.95843,1931
2.9642,2018
2.96998,1905
2.97575,1745
2.98153,1976
2.9873,1626
2.99308,1121
2.99885,1444
3.00463,1945
3.0104,1731
3.01618,1553
3.02195,1914
3.02773,1974
3.0335,1346
3.03928,1350
3.04507,1807
3.05083,1543
3.05662,1850
3.06238,1782
3.06817,1625
3.07393,1171
3.07972,1494
3.08548,1548
3.09127,1603
3.09703,1592
3.10282,1862
3.10858,1787
3.11437,1478
3.12013,1517
3.12592,1677
3.13168,1194
3.13747,1561
3.14323,1766
3.14902,1820
3.15478,1507
3.16057,1539
3.16633,1652
3.17212,1279
3.1779,1409
3.18367,1865
3.18945,1648
3.19522,1676
3.201,1507
3.20677,1630
3.21255,1708
3.21832,1539
3.2241,1455
3.22987,1433
3.23565,1715
3.24142,1634
3.2472,1332
3.25297,1466
3.25875,1338
3.26452,1202
3.2703,1101
3.27607,1373
3.28185,1426
3.28762,1716
3.2934,1688
3.29918,1455
3.30495,1448
3.31073,1708
3.3165,1338
3.32228,1575
3.32805,995
3.33383,1272
3.3396,1564
3.34538,1634
3.35115,1603
3.35693,1389
3.3627,1357
3.36848,1174
3.37425,1495
3.38003,1292
3.3858,1184
3.39158,1387
3.39735,1218
3.40313,886
3.4089,1225
3.41468,1345
3.42045,1466
3.42623,1382
3.43202,1270
3.43778,1054
3.44357,1135
3.44933,1190
3.45512,1496
3.46088,1406
3.46667,1457
3.47243,1449
3.47822,1478
3.48398,1052
3.48977,1276
3.49553,1146
3.50132,1298
3.50708,1450
3.51287,888
3.51863,1381
3.52442,1060
3.53018,999
3.53597,1118
3.54173,1123
3.54752,1233
3.55328,1173
3.55907,1032
3.56485,1195
3.57062,1407
3.5764,1426
3.58217,1098
3.58795,982
3.59372,1329
3.5995,999
3.60527,776
3.61105,986
3.61682,919
3.6226,1110
3.62837,1259
3.63415,954
3.63992,1279
3.6457,1030
3.65147,1374
3.65725,1166
3.66302,830
3.6688,1244
3.67457,1172
3.68035,942
3.68613,1213
3.6919,736
3.69768,1174
3.70345,1182
3.70923,827
3.715,759
3.72078,950
3.72655,1002
3.73233,981
3.7381,1125
3.74388,1112
3.74965,1016
3.75543,1070
3.7612,837
3.76698,1269
3.77275,1064
3.77853,1229
3.7843,1128
3.79008,537
3.79585,1002
3.80163,973
3.8074,963
3.81318,1133
3.81897,758
3.82473,843
3.83052,1322
3.83628,1114
3.84207,937
3.84783,1492
3.85362,1113
3.85938,1001
3.86517,1135
3.87093,941
3.87672,1178
3.88248,1273
3.88827,1406
3.89403,621
3.89982,1590
3.90558,791
3.91137,872
3.91713,1049
3.92292,998
3.92868,1014
3.93447,851
3.94025,1151
3.94602,1065
3.9518,822
3.95757,717
3.96335,1463
3.96912,1001
3.9749,986
3.98067,1119
3.98645,588
3.99222,546
3.998,764
4.00377,767
4.00955,1031
4.01532,820
4.0211,931
4.02687,820
4.03265,909
4.03842,1020
4.0442,928
4.04997,805
4.05575,1029
4.06152,858
4.0673,1034
4.07308,1001
4.07885,1038
4.08463,22709
4.0904,23907
4.09618,21509
4.10195,20641
4.10773,19260
4.1135,17521
4.11928,16493
4.12505,15250
4.13083,14633
4.1366,13546
4.14238,11807
4.14815,11240
4.15393,11508
4.1597,10029
4.16548,9320
4.17125,7762
4.17703,8322
4.1828,8458
4.18858,7519
4.19435,6886
4.20013,6653
4.20592,6502
4.21168,5736
4.21747,6137
4.22323,5615
4.22902,5346
4.23478,5065
4.24057,5245
4.24633,4902
4.25212,4789
4.25788,5237
4.26367,4037
4.26943,4613
4.27522,4530
4.28098,4438
4.28677,3905
4.29253,3726
4.29832,3241
4.30408,3084
4.30987,3741
4.31563,3451
4.32142,3299
4.3272,3065
4.33297,3403
4.33875,3069
4.34452,3486
4.3503,3213
4.35607,2761
4.36185,2339
4.36762,2878
4.3734,2973
4.37917,2797
4.38495,2645
4.39072,2532
4.3965,2610
4.40227,2234
4.40805,2323
4.41382,2499
4.4196,2532
4.42537,2425
4.43115,2143
4.43692,2098
4.4427,2643
4.44847,2090
4.45425,2437
4.46003,2073
4.4658,2379
4.47158,2304
4.47735,1880
4.48313,1906
4.4889,1560
4.49468,2346
4.50045,2396
4.50623,2176
4.512,2254
4.51778,1481
4.52355,2137
4.52933,2127
4.5351,1833
4.54088,2159
4.54665,2070
4.55243,2078
4.5582,1794
4.56398,2018
4.56975,1909
4.57553,1943
4.58132,1775
4.58708,1581
4.59287,1952
4.59863,1633
4.60442,1753
4.61018,1584
4.61597,1771
4.62173,2045
4.62752,2193
4.63328,1823
4.63907,1585
4.64483,2084
4.65062,1944
4.65638,1797
4.66217,1816
4.66793,1757
4.67372,1538
4.67948,1610
4.68527,1918
4.69103,2177
4.69682,1642
4.70258,1731
4.70837,1359
4.71415,1589
4.71992,1752
4.7257,1288
4.73147,1994
4.73725,1256
4.74302,1782
4.7488,1850
4.75457,1595
4.76035,1715
4.76612,1339
4.7719,1510
4.77767,1240
4.78345,1772
4.78922,1503
4.795,1377
4.80077,1680
4.80655,1856
4.81232,1351
4.8181,1292
4.82387,1835
4.82965,1931
4.83543,2001
4.8412,1676
4.84698,1732
4.85275,1564
4.85853,1373
4.8643,1391
4.87008,1390
4.87585,1059
4.88163,1560
4.8874,1695
4.89318,1519
4.89895,1413
4.90473,1755
4.9105,1235
4.91628,981
4.92205,1212
4.92783,1097
4.9336,1198
4.93938,1829
4.94515,1286
4.95093,1465
4.9567,1501
4.96248,1424
4.96827,1190
4.97403,1586
4.97982,1240
4.98558,1739
4.99137,1085
4.99713,1368
5.00292,1668
5.00868,1267
5.01447,1456
5.02023,1465
5.02602,1487
5.03178,1063
5.03757,1403
5.04333,1040
5.04912,1158
5.05488,1487
5.06067,1567
5.06643,1325
5.07222,1538
5.07798,1483
5.08377,1203
5.08953,1322
5.09532,899
5.1011,1410
5.10687,1334
5.11265,1480
5.11842,1642
5.1242,900
5.12997,1213
5.13575,1312
5.14152,1372
5.1473,1202
5.15307,1064
5.15885,1176
5.16462,1413
5.1704,932
5.17617,1730
5.18195,1365
5.18772,1903
5.1935,938
5.19927,1278
5.20505,1298
5.21082,959
5.2166,1341
5.22238,1153
5.22815,1724
5.23393,1076
5.2397,1564
5.24548,1389
5.25125,1298
5.25703,1204
5.2628,1489
5.26858,1451
5.27435,1336
5.28013,1335
5.2859,1350
5.29168,1333
5.29745,1287
5.30323,1246
5.309,1174
5.31478,1597
5.32055,1293
5.32633,1541
5.3321,1256
5.33788,1623
5.34365,1472
5.34943,1478
5.35522,1286
5.36098,1894
5.36677,1029
5.37253,1465
5.37832,1416
5.38408,1691
5.38987,1355
5.39563,1150
5.40142,1582
5.40718,1110
5.41297,1301
5.41873,1293
5.42452,1852
5.43028,1065
5.43607,1623
5.44183,1632
5.44762,1363
5.45338,1505
5.45917,1045
5.46493,1118
5.47072,1349
5.4765,1085
5.48227,1242
5.48805,1435
5.49382,978
5.4996,1468
5.50537,1452
5.51115,1187
5.51692,1317
5.5227,1285
5.52847,1317
5.53425,1673
5.54002,1790
5.5458,1424
5.55157,1464
5.55735,1554
5.56312,1309
5.5689,1390
5.57467,1334
5.58045,1574
5.58622,1446
5.592,1399
5.59777,1708
5.60355,1223
5.60933,1860
5.6151,1468
5.62088,1120
5.62665,1329
5.63243,1464
5.6382,1038
5.64398,1374
5.64975,1493
5.65553,2084
5.6613,1464
5.66708,1830
5.67285,1251
5.67863,1733
5.6844,2193
5.69018,1902
5.69595,1692
5.70173,1827
5.7075,1661
5.71328,1602
5.71905,1821
5.72483,1349
5.73062,1627
5.73638,1388
5.74217,2101
5.74793,1945
5.75372,1894
5.75948,2127
5.76527,2102
5.77103,2042
5.77682,1966
5.78258,1772
5.78837,1681
5.79413,1750
5.79992,1426
5.80568,1607
5.81147,1888
5.81723,1357
5.82302,1831
5.82878,1647
5.83457,1685
5.84033,1416
5.84612,1408
5.85188,1777
5.85767,2109
5.86345,1075
5.86922,1663
5.875,1574
5.88077,1314
5.88655,1728
5.89232,1474
5.8981,1742
5.90387,1873
5.90965,1450
5.91542,1430
5.9212,1534
5.92697,1285
5.93275,1639
5.93852,1465
5.9443,1370
5.95007,1697
5.95585,1297
5.96162,1441
5.9674,1212
5.97317,1369
5.97895,1335
5.98472,1221
5.9905,1539
5.99628,1197
6.00205,1325
6.00783,1498
6.0136,1277
6.01938,1390
6.02515,1428
6.03093,1259
6.0367,1498
6.04248,958
6.04825,118542
6.05403,1001434
6.0598,737859
6.06558,317761
6.07135,172468
6.07713,107937
6.0829,74741
6.08868,55981
6.09445,43290
6.10023,36448
6.106,29728
6.11178,26773
6.11757,21718
6.12333,18991
6.12912,17186
6.13488,14808
6.14067,12974
6.14643,11377
6.15222,11491
6.15798,9732
6.16377,9749
6.16953,9116
6.17532,8742
6.18108,7312
6.18687,7560
6.19263,6018
6.19842,5750
6.20418,6190
6.20997,5076
6.21573,5676
6.22152,5060
6.22728,4817
6.23307,4865
6.23883,4301
6.24462,4373
6.2504,4615
6.25617,5838
6.26195,4720
6.26772,4998
6.2735,4139
6.27927,3576
6.28505,3750
6.29082,81654
6.2966,783646
6.30237,1099054
6.30815,365465
6.31392,65694
6.3197,21688
6.32547,12354
6.33125,8601
6.33702,7510
6.3428,5821
6.34857,5070
6.35435,4355
6.36012,3879
6.3659,4148
6.37167,3925
6.37745,2983
6.38323,3510
6.389,3185
6.39478,3284
6.40055,3015
6.40633,2658
6.4121,3428
6.41788,2439
6.42365,2841
6.42943,2743
6.4352,2562
6.44098,2433
6.44675,2345
6.45253,2194
6.4583,2993
6.46408,2637
6.46985,2393
6.47563,2328
6.4814,2719
6.48718,2608
6.49295,6045
6.49873,7494
6.50452,4797
6.51028,4306
6.51607,3829
6.52183,3870
6.52762,4167
6.53338,3825
6.53917,1953
6.54493,1795
6.55072,2343
6.55648,2919
6.56227,1812
6.56803,2373
6.57382,2009
6.57958,2160
6.58537,1831
6.59113,1682
6.59692,1904
6.60268,1755
6.60847,2004
6.61423,1473
6.62002,1994
6.62578,1497
6.63157,1535
6.63735,1683
6.64312,1555
6.6489,2048
6.65467,1540
6.66045,2033
6.66622,1974
6.672,1751
6.67777,1933
6.68355,1668
6.68932,1956
6.6951,1335
6.70087,1732
6.70665,1742
6.71242,1670
6.7182,1841
6.72397,1408
6.72975,1363
6.73552,1680
6.7413,2143
6.74707,1568
6.75285,1662
6.75863,1535
6.7644,1239
6.77018,1052
6.77595,741
6.78173,1303
6.7875,1517
6.79328,1242
6.79905,1127
6.80483,1333
6.8106,994
6.81638,983
6.82215,1756
6.82793,1156
6.8337,1174
6.83948,1023
6.84525,1279
6.85103,1050
6.8568,1874
6.86258,862
6.86835,1278
6.87413,715
6.8799,1358
6.88568,1117
6.89147,1109
6.89723,1496
6.90302,1020
6.90878,1042
6.91457,1411
6.92033,900
6.92612,1203
6.93188,1270
6.93767,742
6.94343,823
6.94922,693
6.95498,756
6.96077,907
6.96653,926
6.97232,1134
6.97808,676
6.98387,1070
6.98963,814
6.99542,925
7.00118,961
7.00697,884
7.01273,833
7.01852,1235
7.0243,1263
7.03007,703
7.03585,1243
7.04162,1265
7.0474,1078
7.05317,1120
7.05895,1185
7.06472,1398
7.0705,1191
7.07627,505
7.08205,747
7.08782,1090
7.0936,819
7.09937,934
7.10515,806
7.11092,806
7.1167,981
7.12247,678
7.12825,916
7.13402,1348
7.1398,1884
7.14558,2246
7.15135,3279
7.15713,3431
7.1629,5592
7.16868,6986
7.17445,7320
7.18023,10472
7.186,13452
7.19178,16078
7.19755,19793
7.20333,22497
7.2091,27386
7.21488,32541
7.22065,37418
7.22643,42867
7.2322,48977
7.23798,52478
7.24375,57650
7.24953,65268
7.2553,70937
7.26108,77801
7.26685,85407
7.27263,89207
7.27842,100610
7.28418,111255
7.28997,122316
7.29573,135968
7.30152,155480
7.30728,178657
7.31307,267469
7.31883,1015789
7.32462,1265278
7.33038,334184
7.33617,121743
7.34193,76495
7.34772,59466
7.35348,45485
7.35927,40758
7.36503,35703
7.37082,33121
7.37658,28618
7.38237,28172
7.38813,26256
7.39392,25090
7.3997,24397
7.40547,20976
7.41125,19779
7.41702,18210
7.4228,15928
7.42857,15359
7.43435,14713
7.44012,13201
7.4459,13762
7.45167,12163
7.45745,10402
7.46322,11184
7.469,10833
7.47477,10786
7.48055,9215
7.48632,9068
7.4921,9588
7.49787,9340
7.50365,8308
7.50942,9154
7.5152,8759
7.52097,7929
7.52675,8497
7.53253,7881
7.5383,6915
7.54408,7717
7.54985,7525
7.55563,7232
7.5614,7054
7.56718,6891
7.57295,6105
7.57873,6428
7.5845,6846
7.59028,6428
7.59605,7062
7.60183,6531
7.6076,6452
7.61338,5839
7.61915,6439
7.62493,6041
7.6307,5872
7.63648,5849
7.64225,5910
7.64803,5790
7.65382,5982
7.65958,5854
7.66537,5597
7.67113,5804
7.67692,5357
7.68268,5828
7.68847,5783
7.69423,6335
7.70002,5415
7.70578,6420
7.71157,5353
7.71733,5536
7.72312,5171
7.72888,5529
7.73467,5483
7.74043,5325
7.74622,5476
7.75198,4889
7.75777,4753
7.76353,5218
7.76932,5921
7.77508,6055
7.78087,6914
7.78665,7434
7.79242,10763
7.7982,9486
7.80397,7002
7.80975,7422
7.81552,6176
7.8213,6469
7.82707,5800
7.83285,5657
7.83862,5658
7.8444,6135
7.85017,5609
7.85595,4991
7.86172,6115
7.8675,5286
7.87327,5430
7.87905,5426
7.88482,4912
7.8906,5088
7.89637,5371
7.90215,4424
7.90792,4889
7.9137,4549
7.91948,4070
7.92525,4219
7.93103,4750
7.9368,4626
7.94258,4383
7.94835,4334
7.95413,4024
7.9599,3895
7.96568,4368
7.97145,4205
7.97723,3872
7.983,4130
7.98878,4393
7.99455,4528
8.00033,4583
8.0061,3847
8.01188,3682
8.01765,3921
8.02343,3957
8.0292,4546
8.03498,4069
8.04077,3680
8.04653,4057
8.05232,3929
8.05808,3610
8.06387,3266
8.06963,3386
8.07542,3749
8.08118,3665
8.08697,3739
8.09273,3006
8.09852,4326
8.10428,3397
8.11007,3289
8.11583,3372
8.12162,3821
8.12738,3302
8.13317,3684
8.13893,3701
8.14472,3185
8.15048,3089
8.15627,2870
8.16203,3073
8.16782,3332
8.1736,4086
8.17937,2801
8.18515,3737
8.19092,3546
8.1967,3481
8.20247,3963
8.20825,3094
8.21402,3322
8.2198,3500
8.22557,2968
8.23135,2832
8.23712,3392
8.2429,3205
8.24867,3282
8.25445,3573
8.26022,2850
8.266,2668
8.27177,3599
8.27755,2460
8.28332,3398
8.2891,3002
8.29488,2659
8.30065,2921
8.30643,2705
8.3122,2548
8.31798,3085
8.32375,2575
8.32953,2326
8.3353,2738
8.34108,2874
8.34685,2607
8.35263,2951
8.3584,2269
8.36418,2592
8.36995,2488
8.37573,2591
8.3815,2246
8.38728,2249
8.39305,2261
8.39883,2436
8.4046,2184
8.41038,2066
8.41615,2340
8.42193,2498
8.42772,2223
8.43348,2013
8.43927,2392
8.44503,2289
8.45082,3096
8.45658,2258
8.46237,2413
8.46813,2412
8.47392,2630
8.47968,2268
8.48547,2128
8.49123,1796
8.49702,1873
8.50278,2058
8.50857,2544
8.51433,1656
8.52012,2004
8.52588,1657
8.53167,1980
8.53743,1778
8.54322,2068
8.54898,2499
8.55477,1778
8.56055,1832
8.56632,1932
8.5721,1730
8.57787,1702
8.58365,1371
8.58942,1671
8.5952,1968
8.60097,1994
8.60675,1404
8.61252,1805
8.6183,1653
8.62407,1253
8.62985,1930
8.63562,1551
8.6414,1536
8.64717,1385
8.65295,1694
8.65872,1553
8.6645,1375
8.67027,1571
8.67605,1703
8.68183,1436
8.6876,1620
8.69338,940
8.69915,1311
8.70493,1394
8.7107,1488
8.71648,1558
8.72225,863
8.72803,1238
8.7338,1024
8.73958,1273
8.74535,1301
8.75113,1006
8.7569,1293
8.76268,1018
8.76845,1027
8.77423,953
8.78,1208
8.78578,758
8.79155,1255
8.79733,1145
8.8031,1040
8.80888,1246
8.81467,1222
8.82043,1121
8.82622,1142
8.83198,1157
8.83777,1018
8.84353,1083
8.84932,1261
8.85508,790
8.86087,968
8.86663,1072
8.87242,886
8.87818,989
8.88397,1034
8.88973,917
8.89552,1438
8.90128,1021
8.90707,790
8.91283,1195
8.91862,1001
8.92438,1194
8.93017,882
8.93593,868
8.94172,785
8.9475,772
8.95327,860
8.95905,1009
8.96482,707
8.9706,1089
8.97637,757
8.98215,1439
8.98792,773
8.9937,892
8.99947,1057
9.00525,999
9.01102,1069
9.0168,1093
9.02257,1026
9.02835,780
9.03412,1221
9.0399,1007
9.04567,688
9.05145,920
9.05722,830
9.063,1101
9.06878,906
9.07455,759
9.08033,1080
9.0861,789
9.09188,529
9.09765,936
9.10343,851
9.1092,1011
9.11498,666
9.12075,942
9.12653,788
9.1323,1241
9.13808,800
9.14385,775
9.14963,1127
9.1554,772
9.16118,436
9.16695,766
9.17273,1110
9.1785,598
9.18428,1105
9.19005,1168
9.19583,622
9.20162,960
9.20738,818
9.21317,621
9.21893,761
9.22472,888
9.23048,778
9.23627,979
9.24203,710
9.24782,818
9.25358,910
9.25937,994
9.26513,681
9.27092,540
9.27668,637
9.28247,769
9.28823,827
9.29402,784
9.29978,767
9.30557,1097
9.31133,947
9.31712,812
9.3229,654
9.32867,915
9.33445,836
9.34022,815
9.346,701
9.35177,834
9.35755,838
9.36332,838
9.3691,459
9.37487,773
9.38065,1005
9.38642,764
9.3922,1303
9.39797,759
9.40375,837
9.40952,913
9.4153,735
9.42107,1267
9.42685,810
9.43262,765
9.4384,546
9.44417,614
9.44995,798
9.45573,604
9.4615,939
9.46728,887
9.47305,571
9.47883,778
9.4846,893
9.49038,896
9.49615,1186
9.50193,606
9.5077,756
9.51348,1059
9.51925,983
9.52503,1002
9.5308,758
9.53658,938
9.54235,941
9.54813,867
9.5539,795
9.55968,976
9.56545,666
9.57123,801
9.57702,911
9.58278,685
9.58857,862
9.59433,985
9.60012,996
9.60588,948
9.61167,1069
9.61743,1045
9.62322,951
9.62898,860
9.63477,1428
9.64053,848
9.64632,535
9.65208,1098
9.65787,792
9.66363,798
9.66942,1320
9.67518,701
9.68097,957
9.68673,885
9.69252,880
9.69828,930
9.70407,1258
9.70985,1098
9.71562,899
9.7214,1430
9.72717,1251
9.73295,936
9.73872,1304
9.7445,1213
9.75027,644
9.75605,874
9.76182,1405
9.7676,799
9.77337,1071
9.77915,1022
9.78492,1053
9.7907,1107
9.79647,1267
9.80225,1273
9.80802,1357
9.8138,766
9.81957,1056
9.82535,1119
9.83112,1056
9.8369,1616
9.84268,1068
9.84845,1249
9.85423,1178
9.86,851
9.86578,1181
9.87155,1424
9.87733,1379
9.8831,1356
9.88888,1393
9.89465,1019
9.90043,1005
9.9062,1049
9.91198,1464
9.91775,1576
9.92353,743
9.9293,1839
9.93508,1454
9.94085,1401
9.94663,992
9.9524,1280
9.95818,1319
9.96397,963
9.96973,1319
9.97552,1084
9.98128,1458
9.98707,1492
9.99283,1365
9.99862,1306
10.0044,1129
10.0102,1713
10.0159,1419
10.0217,2424
10.0275,989
10.0333,1725
10.039,1374
10.0448,1354
10.0506,1883
10.0564,1422
10.0621,1316
10.0679,1917
10.0737,1502
10.0795,1407
10.0852,1070
10.091,1241
10.0968,1779
10.1026,1409
10.1084,1536
10.1141,1672
10.1199,1534
10.1257,1802
10.1315,1928
10.1372,1903
10.143,3384
10.1488,28147
10.1546,57874
10.1603,38902
10.1661,19083
10.1719,9499
10.1777,6373
10.1834,4502
10.1892,4513
10.195,2719
10.2008,3187
10.2065,2986
10.2123,2562
10.2181,3075
10.2239,2811
10.2296,2168
10.2354,1747
10.2412,2458
10.247,2557
10.2527,2389
10.2585,2206
10.2643,1965
10.2701,7494
10.2758,213622
10.2816,1736138
10.2874,2412933
10.2932,925372
10.2989,385279
10.3047,234118
10.3105,157193
10.3163,115492
10.322,93497
10.3278,73613
10.3336,58009
10.3394,51229
10.3451,40468
10.3509,37149
10.3567,31259
10.3625,28350
10.3682,25598
10.374,21107
10.3798,19649
10.3856,16184
10.3913,14773
10.3971,13449
10.4029,13537
10.4087,12611
10.4144,11245
10.4202,10097
10.426,9091
10.4318,9206
10.4375,10163
10.4433,8057
10.4491,7816
10.4549,7147
10.4606,7196
10.4664,7092
10.4722,6620
10.478,7394
10.4838,6528
10.4895,7030
10.4953,5084
10.5011,5332
10.5069,5377
10.5126,5904
10.5184,5712
10.5242,5440
10.53,6181
10.5357,6160
10.5415,4941
10.5473,3996
10.5531,5264
10.5588,5137
10.5646,5035
10.5704,5695
10.5762,4755
10.5819,4735
10.5877,5415
10.5935,4577
10.5993,4913
10.605,5133
10.6108,5513
10.6166,5377
10.6224,4838
10.6281,5078
10.6339,5132
10.6397,4550
10.6455,4658
10.6512,4328
10.657,5588
10.6628,4643
10.6686,4581
10.6743,5079
10.6801,4535
10.6859,5436
10.6917,5483
10.6974,5170
10.7032,4874
10.709,5449
10.7148,5153
10.7205,5308
10.7263,6169
10.7321,4965
10.7379,5878
10.7436,5768
10.7494,6126
10.7552,5568
10.761,5955
10.7667,6130
10.7725,5226
10.7783,6201
10.7841,6234
10.7898,5906
10.7956,6807
10.8014,6112
10.8072,6751
10.8129,6163
10.8187,6221
10.8245,6198
10.8303,5829
10.836,6207
10.8418,7078
10.8476,6070
10.8534,6207
10.8592,6814
10.8649,6559
10.8707,6691
10.8765,6218
10.8823,7860
10.888,6337
10.8938,7291
10.8996,7226
10.9054,7077
10.9111,6975
10.9169,7634
10.9227,7747
10.9285,7939
10.9342,7329
10.94,8264
10.9458,7422
10.9516,7921
10.9573,7346
10.9631,7221
10.9689,8404
10.9747,7824
10.9804,8436
10.9862,7685
10.992,8598
10.9978,9224
11.0035,8361
11.0093,8148
11.0151,8078
11.0209,9687
11.0266,8988
11.0324,9363
11.0382,9010
11.044,8721
11.0497,8334
11.0555,9702
11.0613,8494
11.0671,9507
11.0728,10246
11.0786,10239
11.0844,9755
11.0902,9753
11.0959,10151
11.1017,9917
11.1075,10673
11.1133,9644
11.119,10563
11.1248,10213
11.1306,9918
11.1364,11382
11.1421,11359
11.1479,10924
11.1537,10682
11.1595,10342
11.1652,11243
11.171,11699
11.1768,10707
11.1826,12409
11.1883,12857
11.1941,12516
11.1999,12737
11.2057,12079
11.2114,12052
11.2172,12808
11.223,13091
11.2288,12055
11.2345,12643
11.2403,12497
11.2461,13056
11.2519,12219
11.2577,12799
11.2634,12560
11.2692,13225
11.275,14229
11.2808,12599
11.2865,13914
11.2923,13503
11.2981,14269
11.3039,14896
11.3096,14792
11.3154,14392
11.3212,15056
11.327,14901
11.3327,15220
11.3385,14407
11.3443,15282
11.3501,16520
11.3558,17079
11.3616,14442
11.3674,16261
11.3732,16573
11.3789,15158
11.3847,17065
11.3905,17645
11.3963,16693
11.402,16859
11.4078,18418
11.4136,18192
11.4194,17819
11.4251,17292
11.4309,17068
11.4367,19801
11.4425,18298
11.4482,18589
11.454,19935
11.4598,20947
11.4656,19391
11.4713,19452
11.4771,20568
11.4829,20466
11.4887,20587
11.4944,20283
11.5002,19268
11.506,20816
11.5118,20528
11.5175,21980
11.5233,22354
11.5291,22998
11.5349,22684
11.5406,21937
11.5464,23113
11.5522,22952
11.558,22463
11.5637,24088
11.5695,24250
11.5753,24214
11.5811,24524
11.5868,25470
11.5926,25015
11.5984,25746
11.6042,25362
11.6099,26463
11.6157,25937
11.6215,26499
11.6273,28002
11.6331,26153
11.6388,28219
11.6446,28401
11.6504,27050
11.6562,29484
11.6619,27265
11.6677,28953
11.6735,29163
11.6793,28639
11.685,28430
11.6908,30715
11.6966,30379
11.7024,29698
11.7081,29798
11.7139,30258
11.7197,32720
11.7255,31281
11.7312,31903
11.737,32700
11.7428,32516
11.7486,34251
11.7543,35578
11.7601,35077
11.7659,34489
11.7717,34396
11.7774,34752
11.7832,35923
11.789,37570
11.7948,36983
11.8005,38227
11.8063,37761
11.8121,37022
11.8179,37668
11.8236,38479
11.8294,37473
11.8352,39703
11.841,39548
11.8467,38658
11.8525,38455
11.8583,38810
11.8641,39642
11.8698,40145
11.8756,41096
11.8814,40453
11.8872,43878
11.8929,40942
11.8987,41110
11.9045,41275
11.9103,42570
11.916,43986
11.9218,43090
11.9276,43788
11.9334,43315
11.9391,42986
11.9449,45833
11.9507,45021
11.9565,44330
11.9622,47408
11.968,44729
11.9738,45750
11.9796,47661
11.9853,48056
11.9911,47042
11.9969,47101
12.0027,46336
12.0084,45669
12.0142,47593
12.02,48779
12.0258,48090
12.0316,47962
12.0373,48897
12.0431,49376
12.0489,50080
12.0547,49679
12.0604,50997
12.0662,49768
12.072,49054
12.0778,51621
12.0835,52695
12.0893,52606
12.0951,52323
12.1009,53010
12.1066,52151
12.1124,52178
12.1182,53277
12.124,54190
12.1297,51723
12.1355,53999
12.1413,54200
12.1471,51323
12.1528,53103
12.1586,55722
12.1644,54904
12.1702,54462
12.1759,57576
12.1817,56052
12.1875,56980
12.1933,56224
12.199,57301
12.2048,55307
12.2106,57774
12.2164,55981
12.2221,56555
12.2279,55561
12.2337,58276
12.2395,57270
12.2452,58102
12.251,60676
12.2568,57497
12.2626,58412
12.2683,59127
12.2741,59441
12.2799,60747
12.2857,59698
12.2914,60126
12.2972,58904
12.303,58657
12.3088,59458
12.3145,60373
12.3203,59266
12.3261,59434
12.3319,61041
12.3376,61634
12.3434,59543
12.3492,61703
12.355,62771
12.3607,63273
12.3665,62765
12.3723,63331
12.3781,61966
12.3838,62487
12.3896,61222
12.3954,62492
12.4012,63249
12.407,64178
12.4127,66105
12.4185,61902
12.4243,64609
12.4301,64727
12.4358,63713
12.4416,63332
12.4474,62177
12.4532,65709
12.4589,64435
12.4647,63003
12.4705,63191
12.4763,64792
12.482,63335
12.4878,65781
12.4936,64918
12.4994,62647
12.5051,67197
12.5109,66694
12.5167,64020
12.5225,65297
12.5282,65201
12.534,64777
12.5398,64063
12.5456,63293
12.5513,61932
12.5571,63252
12.5629,67082
12.5687,64476
12.5744,64678
12.5802,65922
12.586,64027
12.5918,63325
12.5975,64066
12.6033,66088
12.6091,65090
12.6149,62874
12.6206,65108
12.6264,64536
12.6322,64081
12.638,63999
12.6437,65311
12.6495,63562
12.6553,63907
12.6611,65077
12.6668,64102
12.6726,63446
12.6784,66914
12.6842,66647
12.6899,65125
12.6957,65234
12.7015,67180
12.7073,64521
