[Header]
Application Name,LCsolution
Version,1.25
Data File Name,C:\LabSolutions\Data\aldolaze\Martina\aldolna adicija\batch_21022012\EtAc\0.lcd
Output Date,12.12.2023.
Output Time,11:19:02

[File Information]
Type,Data File
Generated,21.2.2012. 13:16:32
Generated by,Admin
Modified,21.2.2012. 13:33:38
Modified by,Admin

[Sample Information]
Operator Name,Admin
Acquired,21.2.2012. 13:16:57
Sample Type,0:Unknown
Level,0
Sample Name,0
Sample ID,
ISTD Amount 1,1
ISTD Amount 2,1
ISTD Amount 3,1
ISTD Amount 4,1
ISTD Amount 5,1
ISTD Amount 6,1
ISTD Amount 7,1
ISTD Amount 8,1
ISTD Amount 9,1
ISTD Amount 10,1
ISTD Amount 11,1
ISTD Amount 12,1
ISTD Amount 13,1
ISTD Amount 14,1
ISTD Amount 15,1
ISTD Amount 16,1
ISTD Amount 17,1
ISTD Amount 18,1
ISTD Amount 19,1
ISTD Amount 20,1
ISTD Amount 21,1
ISTD Amount 22,1
ISTD Amount 23,1
ISTD Amount 24,1
ISTD Amount 25,1
ISTD Amount 26,1
ISTD Amount 27,1
ISTD Amount 28,1
ISTD Amount 29,1
ISTD Amount 30,1
ISTD Amount 31,1
ISTD Amount 32,1
Sample Amount,1
Dilution Factor,1
Vial#,1
Injection Volume,20

[Original Files]
Data File,C:\LabSolutions\Data\aldolaze\Martina\aldolna adicija\batch_21022012\EtAc\0.lcd
Method File,C:\LabSolutions\Data\aldolaze\metoda3_2eluenta.lcm
Batch File,C:\LabSolutions\Data\aldolaze\Martina\baždarci\aldol-aldehid-01022012\lista.lcb
Report Format File,C:\LabSolutions\LCsolution\System\Default.lcr
Tuning File,

[File Description]


[Configuration]
# of Detectors,2
Detector ID,Detector A,AD2
Detector Name,Detector A,AD2
# of Channels,1,1

[Peak Table(Detector A-Ch1)]
# of Peaks,14
Peak#,R.Time,I.Time,F.Time,Area,Height,A/H,Conc.,Mark,ID#,Name,k',Plate #,Plate Ht.,Tailing,Resolution,Sep.Factor,Conc. %,Norm Conc.
1,0.143,0.017,0.342,1278,107,11.9230,0.0000,   ,,,0.000,4,41558.735,1.160,0.000,0.000,0.0000,0.0000
2,2.677,2.600,2.842,7633,868,8.7930,0.0000,   ,,,17.675,2267,66.156,1.540,9.621,0.000,0.0000,0.0000
3,3.113,2.867,3.492,74069,3235,22.8950,0.0000,   ,,,20.715,284,528.740,0.000,0.904,1.172,0.0000,0.0000
4,3.674,3.492,4.225,62448,1896,32.9390,0.0000, V ,,,24.632,195,767.696,0.000,0.627,1.189,0.0000,0.0000
5,4.541,4.225,4.858,61821,2075,29.7890,0.0000, V ,,,30.681,11,13168.368,0.000,0.270,1.246,0.0000,0.0000
6,5.264,4.858,6.025,591150,23289,25.3830,0.0000, V ,,,35.719,1559,96.223,0.000,0.244,1.164,0.0000,0.0000
7,6.234,6.025,6.417,69898,3040,22.9950,0.0000, V ,,,42.488,8,18539.786,0.000,0.209,1.189,0.0000,0.0000
8,6.570,6.417,6.708,51229,2962,17.2940,0.0000, V ,,,44.832,6,27270.488,0.000,0.034,1.055,0.0000,0.0000
9,7.099,6.708,7.442,271461,9085,29.8790,0.0000, V ,,,48.524,1106,135.634,0.000,0.088,1.082,0.0000,0.0000
10,8.063,7.442,8.950,2838883,74297,38.2100,0.0000, V ,1,RT8.063,55.243,1156,129.804,0.000,1.069,1.138,0.0000,0.0000
11,9.083,8.950,10.367,458569,7811,58.7060,0.0000, V ,,,62.362,26,5780.190,0.000,0.253,1.129,0.0000,0.0000
12,10.392,10.367,11.067,150804,3848,39.1900,0.0000, V ,,,71.492,1,157400.235,0.000,0.053,1.146,0.0000,0.0000
13,11.391,11.067,12.442,273652,3881,70.5040,0.0000, V ,,,78.463,96,1566.775,0.000,0.042,1.098,0.0000,0.0000
14,12.567,12.442,14.967,184099,2616,70.3870,0.0000, V ,,,86.664,13,11724.488,0.000,0.126,1.105,0.0000,0.0000

[Peak Table(AD2)]
# of Peaks,0

[Peak Table(PDA-Ch1)]
# of Peaks,0

[Compound Results(Detector A)]
# of IDs,1
ID#,Name,R.Time,Area,Height,Conc.,Curve,3rd,2nd,1st,Constant,Conc. %,Norm Conc.
1,RT8.063,8.063,2838883,74297,0.0000,Linear,0.0,0.0,0.0,0.0,0.0000,0.0000

[Compound Results(AD2)]
# of IDs,0

[Compound Results(PDA)]
# of IDs,0

[Group Results(Detector A)]
# of Groups,0

[Group Results(AD2)]
# of Groups,0

[Group Results(PDA)]
# of Groups,0

[LC Chromatogram(Detector A-Ch1)]
Interval(msec),500
# of Points,1801
Start Time(min),0.000
End Time(min),15.000
Intensity Units,mV
Intensity Multiplier,0.001
Wavelength(nm),215
R.Time (min),Intensity
0.00000,-132
0.00833,-132
0.01667,-52
0.02500,3
0.03333,8
0.04167,13
0.05000,18
0.05833,22
0.06667,26
0.07500,28
0.08333,29
0.09167,31
0.10000,30
0.10833,31
0.11667,32
0.12500,33
0.13333,34
0.14167,35
0.15000,35
0.15833,34
0.16667,32
0.17500,29
0.18333,24
0.19167,18
0.20000,12
0.20833,3
0.21667,-7
0.22500,-17
0.23333,-27
0.24167,-34
0.25000,-41
0.25833,-50
0.26667,-58
0.27500,-66
0.28333,-74
0.29167,-80
0.30000,-86
0.30833,-93
0.31667,-97
0.32500,-101
0.33333,-104
0.34167,-104
0.35000,-103
0.35833,-100
0.36667,-100
0.37500,-100
0.38333,-98
0.39167,-96
0.40000,-93
0.40833,-88
0.41667,-85
0.42500,-84
0.43333,-82
0.44167,-78
0.45000,-75
0.45833,-72
0.46667,-70
0.47500,-70
0.48333,-70
0.49167,-72
0.50000,-77
0.50833,-84
0.51667,-91
0.52500,-100
0.53333,-112
0.54167,-122
0.55000,-127
0.55833,-134
0.56667,-142
0.57500,-146
0.58333,-151
0.59167,-156
0.60000,-161
0.60833,-164
0.61667,-170
0.62500,-175
0.63333,-179
0.64167,-181
0.65000,-181
0.65833,-181
0.66667,-180
0.67500,-180
0.68333,-180
0.69167,-178
0.70000,-177
0.70833,-178
0.71667,-179
0.72500,-181
0.73333,-181
0.74167,-179
0.75000,-180
0.75833,-181
0.76667,-179
0.77500,-176
0.78333,-174
0.79167,-174
0.80000,-174
0.80833,-174
0.81667,-175
0.82500,-177
0.83333,-181
0.84167,-187
0.85000,-189
0.85833,-191
0.86667,-189
0.87500,-188
0.88333,-186
0.89167,-183
0.90000,-178
0.90833,-173
0.91667,-170
0.92500,-166
0.93333,-164
0.94167,-161
0.95000,-161
0.95833,-161
0.96667,-160
0.97500,-159
0.98333,-154
0.99167,-148
1.00000,-142
1.00833,-139
1.01667,-135
1.02500,-132
1.03333,-131
1.04167,-131
1.05000,-131
1.05833,-131
1.06667,-131
1.07500,-131
1.08333,-132
1.09167,-133
1.10000,-132
1.10833,-134
1.11667,-134
1.12500,-138
1.13333,-143
1.14167,-147
1.15000,-150
1.15833,-156
1.16667,-161
1.17500,-168
1.18333,-177
1.19167,-184
1.20000,-191
1.20833,-198
1.21667,-205
1.22500,-211
1.23333,-217
1.24167,-224
1.25000,-232
1.25833,-238
1.26667,-241
1.27500,-245
1.28333,-248
1.29167,-252
1.30000,-257
1.30833,-259
1.31667,-258
1.32500,-256
1.33333,-253
1.34167,-249
1.35000,-245
1.35833,-241
1.36667,-235
1.37500,-231
1.38333,-227
1.39167,-225
1.40000,-228
1.40833,-239
1.41667,-261
1.42500,-307
1.43333,-377
1.44167,-471
1.45000,-585
1.45833,-692
1.46667,-760
1.47500,-756
1.48333,-659
1.49167,-469
1.50000,-213
1.50833,64
1.51667,334
1.52500,880
1.53333,2598
1.54167,6087
1.55000,11244
1.55833,18268
1.56667,27936
1.57500,40454
1.58333,55046
1.59167,70461
1.60000,85618
1.60833,99897
1.61667,113267
1.62500,126163
1.63333,138582
1.64167,149690
1.65000,158331
1.65833,163888
1.66667,166475
1.67500,166411
1.68333,163976
1.69167,159306
1.70000,152273
1.70833,142699
1.71667,130690
1.72500,116669
1.73333,101229
1.74167,84896
1.75000,67749
1.75833,49587
1.76667,30446
1.77500,10583
1.78333,-9816
1.79167,-30442
1.80000,-51099
1.80833,-72938
1.81667,-98317
1.82500,-127738
1.83333,-158913
1.84167,-188494
1.85000,-213909
1.85833,-234038
1.86667,-248938
1.87500,-259303
1.88333,-265998
1.89167,-269805
1.90000,-271375
1.90833,-271344
1.91667,-270457
1.92500,-269461
1.93333,-268788
1.94167,-268419
1.95000,-268025
1.95833,-267188
1.96667,-265607
1.97500,-263248
1.98333,-260373
1.99167,-257407
2.00000,-254742
2.00833,-252627
2.01667,-251107
2.02500,-250060
2.03333,-249250
2.04167,-248408
2.05000,-247315
2.05833,-245827
2.06667,-243880
2.07500,-241464
2.08333,-238580
2.09167,-235221
2.10000,-231376
2.10833,-227001
2.11667,-222046
2.12500,-216468
2.13333,-210203
2.14167,-203187
2.15000,-195356
2.15833,-186578
2.16667,-176618
2.17500,-165032
2.18333,-150471
2.19167,-129438
2.20000,-96900
2.20833,-49052
2.21667,14474
2.22500,89950
2.23333,167991
2.24167,235076
2.25000,282147
2.25833,310120
2.26667,330842
2.27500,362624
2.28333,418110
2.29167,496637
2.30000,586114
2.30833,666740
2.31667,715950
2.32500,719571
2.33333,678177
2.34167,603449
2.35000,510555
2.35833,412373
2.36667,318578
2.37500,236113
2.38333,168770
2.39167,117283
2.40000,80129
2.40833,54551
2.41667,37544
2.42500,26475
2.43333,19308
2.44167,14610
2.45000,11436
2.45833,9190
2.46667,7514
2.47500,6194
2.48333,5109
2.49167,4188
2.50000,3391
2.50833,2703
2.51667,2111
2.52500,1606
2.53333,1184
2.54167,842
2.55000,575
2.55833,378
2.56667,237
2.57500,144
2.58333,93
2.59167,72
2.60000,73
2.60833,92
2.61667,120
2.62500,155
2.63333,196
2.64167,238
2.65000,275
2.65833,313
2.66667,343
2.67500,360
2.68333,363
2.69167,352
2.70000,322
2.70833,274
2.71667,206
2.72500,118
2.73333,12
2.74167,-108
2.75000,-241
2.75833,-383
2.76667,-531
2.77500,-685
2.78333,-841
2.79167,-998
2.80000,-1151
2.80833,-1299
2.81667,-1435
2.82500,-1556
2.83333,-1658
2.84167,-1739
2.85000,-1796
2.85833,-1826
2.86667,-1830
2.87500,-1809
2.88333,-1763
2.89167,-1699
2.90000,-1619
2.90833,-1522
2.91667,-1411
2.92500,-1291
2.93333,-1160
2.94167,-1015
2.95000,-856
2.95833,-688
2.96667,-513
2.97500,-336
2.98333,-158
2.99167,16
3.00000,186
3.00833,349
3.01667,499
3.02500,636
3.03333,760
3.04167,873
3.05000,974
3.05833,1065
3.06667,1145
3.07500,1218
3.08333,1283
3.09167,1341
3.10000,1384
3.10833,1407
3.11667,1414
3.12500,1408
3.13333,1387
3.14167,1356
3.15000,1315
3.15833,1271
3.16667,1225
3.17500,1176
3.18333,1124
3.19167,1073
3.20000,1020
3.20833,963
3.21667,898
3.22500,827
3.23333,752
3.24167,678
3.25000,602
3.25833,523
3.26667,450
3.27500,383
3.28333,320
3.29167,264
3.30000,212
3.30833,164
3.31667,116
3.32500,68
3.33333,17
3.34167,-34
3.35000,-84
3.35833,-136
3.36667,-182
3.37500,-222
3.38333,-255
3.39167,-281
3.40000,-303
3.40833,-322
3.41667,-342
3.42500,-366
3.43333,-393
3.44167,-426
3.45000,-464
3.45833,-502
3.46667,-538
3.47500,-567
3.48333,-588
3.49167,-596
3.50000,-590
3.50833,-574
3.51667,-548
3.52500,-516
3.53333,-482
3.54167,-442
3.55000,-400
3.55833,-360
3.56667,-319
3.57500,-279
3.58333,-236
3.59167,-194
3.60000,-150
3.60833,-107
3.61667,-69
3.62500,-34
3.63333,-2
3.64167,26
3.65000,51
3.65833,71
3.66667,86
3.67500,94
3.68333,93
3.69167,89
3.70000,83
3.70833,73
3.71667,67
3.72500,60
3.73333,50
3.74167,40
3.75000,29
3.75833,17
3.76667,2
3.77500,-13
3.78333,-29
3.79167,-47
3.80000,-62
3.80833,-76
3.81667,-88
3.82500,-99
3.83333,-111
3.84167,-121
3.85000,-128
3.85833,-134
3.86667,-143
3.87500,-154
3.88333,-166
3.89167,-179
3.90000,-192
3.90833,-206
3.91667,-220
3.92500,-237
3.93333,-254
3.94167,-270
3.95000,-286
3.95833,-306
3.96667,-327
3.97500,-350
3.98333,-372
3.99167,-394
4.00000,-419
4.00833,-448
4.01667,-480
4.02500,-513
4.03333,-545
4.04167,-573
4.05000,-602
4.05833,-637
4.06667,-671
4.07500,-706
4.08333,-741
4.09167,-777
4.10000,-815
4.10833,-853
4.11667,-890
4.12500,-927
4.13333,-963
4.14167,-996
4.15000,-1027
4.15833,-1056
4.16667,-1083
4.17500,-1108
4.18333,-1131
4.19167,-1150
4.20000,-1166
4.20833,-1177
4.21667,-1185
4.22500,-1188
4.23333,-1185
4.24167,-1178
4.25000,-1168
4.25833,-1155
4.26667,-1135
4.27500,-1109
4.28333,-1078
4.29167,-1042
4.30000,-1004
4.30833,-962
4.31667,-915
4.32500,-867
4.33333,-817
4.34167,-766
4.35000,-707
4.35833,-644
4.36667,-578
4.37500,-512
4.38333,-448
4.39167,-385
4.40000,-322
4.40833,-261
4.41667,-204
4.42500,-149
4.43333,-95
4.44167,-44
4.45000,4
4.45833,51
4.46667,95
4.47500,135
4.48333,173
4.49167,205
4.50000,234
4.50833,255
4.51667,273
4.52500,288
4.53333,297
4.54167,302
4.55000,302
4.55833,300
4.56667,296
4.57500,294
4.58333,290
4.59167,286
4.60000,279
4.60833,270
4.61667,259
4.62500,246
4.63333,232
4.64167,215
4.65000,196
4.65833,178
4.66667,161
4.67500,147
4.68333,136
4.69167,125
4.70000,115
4.70833,105
4.71667,94
4.72500,86
4.73333,81
4.74167,77
4.75000,70
4.75833,62
4.76667,54
4.77500,46
4.78333,43
4.79167,40
4.80000,37
4.80833,35
4.81667,32
4.82500,29
4.83333,25
4.84167,22
4.85000,20
4.85833,19
4.86667,20
4.87500,23
4.88333,28
4.89167,42
4.90000,67
4.90833,102
4.91667,148
4.92500,209
4.93333,290
4.94167,393
4.95000,528
4.95833,700
4.96667,909
4.97500,1166
4.98333,1474
4.99167,1831
5.00000,2241
5.00833,2698
5.01667,3194
5.02500,3725
5.03333,4279
5.04167,4843
5.05000,5406
5.05833,5960
5.06667,6497
5.07500,7023
5.08333,7539
5.09167,8048
5.10000,8566
5.10833,9104
5.11667,9677
5.12500,10301
5.13333,10988
5.14167,11743
5.15000,12568
5.15833,13457
5.16667,14399
5.17500,15373
5.18333,16348
5.19167,17293
5.20000,18182
5.20833,18988
5.21667,19691
5.22500,20277
5.23333,20747
5.24167,21100
5.25000,21345
5.25833,21488
5.26667,21541
5.27500,21512
5.28333,21410
5.29167,21239
5.30000,20999
5.30833,20688
5.31667,20303
5.32500,19843
5.33333,19309
5.34167,18706
5.35000,18040
5.35833,17316
5.36667,16543
5.37500,15734
5.38333,14906
5.39167,14067
5.40000,13228
5.40833,12403
5.41667,11605
5.42500,10842
5.43333,10120
5.44167,9439
5.45000,8800
5.45833,8205
5.46667,7655
5.47500,7149
5.48333,6686
5.49167,6263
5.50000,5872
5.50833,5511
5.51667,5181
5.52500,4879
5.53333,4605
5.54167,4355
5.55000,4130
5.55833,3924
5.56667,3733
5.57500,3557
5.58333,3395
5.59167,3244
5.60000,3104
5.60833,2974
5.61667,2855
5.62500,2743
5.63333,2640
5.64167,2545
5.65000,2457
5.65833,2377
5.66667,2304
5.67500,2235
5.68333,2172
5.69167,2112
5.70000,2053
5.70833,2000
5.71667,1950
5.72500,1901
5.73333,1857
5.74167,1815
5.75000,1775
5.75833,1740
5.76667,1710
5.77500,1682
5.78333,1656
5.79167,1631
5.80000,1607
5.80833,1584
5.81667,1561
5.82500,1538
5.83333,1515
5.84167,1492
5.85000,1470
5.85833,1450
5.86667,1432
5.87500,1412
5.88333,1397
5.89167,1384
5.90000,1369
5.90833,1352
5.91667,1334
5.92500,1318
5.93333,1304
5.94167,1289
5.95000,1274
5.95833,1260
5.96667,1247
5.97500,1233
5.98333,1222
5.99167,1215
6.00000,1212
6.00833,1210
6.01667,1209
6.02500,1209
6.03333,1209
6.04167,1210
6.05000,1210
6.05833,1211
6.06667,1214
6.07500,1220
6.08333,1229
6.09167,1235
6.10000,1242
6.10833,1251
6.11667,1263
6.12500,1273
6.13333,1282
6.14167,1290
6.15000,1299
6.15833,1305
6.16667,1311
6.17500,1313
6.18333,1315
6.19167,1317
6.20000,1317
6.20833,1319
6.21667,1322
6.22500,1323
6.23333,1324
6.24167,1324
6.25000,1320
6.25833,1313
6.26667,1305
6.27500,1296
6.28333,1286
6.29167,1275
6.30000,1264
6.30833,1254
6.31667,1244
6.32500,1236
6.33333,1229
6.34167,1225
6.35000,1218
6.35833,1210
6.36667,1204
6.37500,1199
6.38333,1193
6.39167,1189
6.40000,1185
6.40833,1181
6.41667,1180
6.42500,1182
6.43333,1183
6.44167,1185
6.45000,1190
6.45833,1195
6.46667,1201
6.47500,1208
6.48333,1210
6.49167,1213
6.50000,1217
6.50833,1221
6.51667,1227
6.52500,1235
6.53333,1240
6.54167,1244
6.55000,1249
6.55833,1254
6.56667,1257
6.57500,1258
6.58333,1256
6.59167,1252
6.60000,1250
6.60833,1244
6.61667,1239
6.62500,1235
6.63333,1229
6.64167,1225
6.65000,1221
6.65833,1219
6.66667,1217
6.67500,1212
6.68333,1208
6.69167,1207
6.70000,1207
6.70833,1206
6.71667,1206
6.72500,1208
6.73333,1215
6.74167,1230
6.75000,1248
6.75833,1272
6.76667,1301
6.77500,1335
6.78333,1377
6.79167,1427
6.80000,1486
6.80833,1551
6.81667,1629
6.82500,1721
6.83333,1825
6.84167,1947
6.85000,2087
6.85833,2245
6.86667,2423
6.87500,2617
6.88333,2825
6.89167,3049
6.90000,3286
6.90833,3533
6.91667,3791
6.92500,4057
6.93333,4326
6.94167,4596
6.95000,4865
6.95833,5127
6.96667,5380
6.97500,5626
6.98333,5860
6.99167,6079
7.00000,6282
7.00833,6467
7.01667,6630
7.02500,6775
7.03333,6903
7.04167,7014
7.05000,7111
7.05833,7192
7.06667,7260
7.07500,7314
7.08333,7356
7.09167,7384
7.10000,7399
7.10833,7398
7.11667,7380
7.12500,7348
7.13333,7301
7.14167,7236
7.15000,7157
7.15833,7064
7.16667,6957
7.17500,6841
7.18333,6713
7.19167,6575
7.20000,6430
7.20833,6275
7.21667,6113
7.22500,5944
7.23333,5772
7.24167,5599
7.25000,5427
7.25833,5254
7.26667,5084
7.27500,4918
7.28333,4758
7.29167,4603
7.30000,4455
7.30833,4312
7.31667,4177
7.32500,4049
7.33333,3926
7.34167,3810
7.35000,3703
7.35833,3601
7.36667,3506
7.37500,3421
7.38333,3346
7.39167,3278
7.40000,3222
7.40833,3176
7.41667,3141
7.42500,3120
7.43333,3109
7.44167,3107
7.45000,3120
7.45833,3147
7.46667,3191
7.47500,3251
7.48333,3327
7.49167,3423
7.50000,3542
7.50833,3684
7.51667,3849
7.52500,4041
7.53333,4263
7.54167,4515
7.55000,4797
7.55833,5110
7.56667,5458
7.57500,5842
7.58333,6264
7.59167,6726
7.60000,7227
7.60833,7770
7.61667,8359
7.62500,8994
7.63333,9676
7.64167,10403
7.65000,11173
7.65833,11990
7.66667,12858
7.67500,13777
7.68333,14747
7.69167,15766
7.70000,16834
7.70833,17951
7.71667,19123
7.72500,20349
7.73333,21632
7.74167,22972
7.75000,24359
7.75833,25791
7.76667,27269
7.77500,28796
7.78333,30366
7.79167,31979
7.80000,33625
7.80833,35299
7.81667,36995
7.82500,38711
7.83333,40448
7.84167,42203
7.85000,43966
7.85833,45724
7.86667,47468
7.87500,49194
7.88333,50898
7.89167,52581
7.90000,54236
7.90833,55851
7.91667,57416
7.92500,58928
7.93333,60383
7.94167,61780
7.95000,63115
7.95833,64382
7.96667,65571
7.97500,66677
7.98333,67694
7.99167,68621
8.00000,69458
8.00833,70203
8.01667,70851
8.02500,71398
8.03333,71847
8.04167,72195
8.05000,72444
8.05833,72593
8.06667,72643
8.07500,72593
8.08333,72447
8.09167,72203
8.10000,71867
8.10833,71438
8.11667,70915
8.12500,70304
8.13333,69613
8.14167,68847
8.15000,68012
8.15833,67108
8.16667,66136
8.17500,65100
8.18333,64006
8.19167,62859
8.20000,61665
8.20833,60432
8.21667,59164
8.22500,57860
8.23333,56526
8.24167,55166
8.25000,53786
8.25833,52396
8.26667,51003
8.27500,49602
8.28333,48197
8.29167,46791
8.30000,45393
8.30833,44005
8.31667,42629
8.32500,41267
8.33333,39923
8.34167,38597
8.35000,37293
8.35833,36019
8.36667,34773
8.37500,33557
8.38333,32371
8.39167,31216
8.40000,30091
8.40833,28998
8.41667,27939
8.42500,26914
8.43333,25924
8.44167,24967
8.45000,24041
8.45833,23148
8.46667,22290
8.47500,21465
8.48333,20675
8.49167,19920
8.50000,19197
8.50833,18506
8.51667,17843
8.52500,17206
8.53333,16596
8.54167,16012
8.55000,15453
8.55833,14920
8.56667,14414
8.57500,13929
8.58333,13467
8.59167,13029
8.60000,12610
8.60833,12214
8.61667,11841
8.62500,11487
8.63333,11149
8.64167,10826
8.65000,10518
8.65833,10222
8.66667,9942
8.67500,9678
8.68333,9430
8.69167,9195
8.70000,8974
8.70833,8765
8.71667,8568
8.72500,8381
8.73333,8203
8.74167,8035
8.75000,7872
8.75833,7716
8.76667,7567
8.77500,7424
8.78333,7290
8.79167,7165
8.80000,7044
8.80833,6931
8.81667,6826
8.82500,6730
8.83333,6640
8.84167,6558
8.85000,6480
8.85833,6405
8.86667,6338
8.87500,6278
8.88333,6223
8.89167,6174
8.90000,6130
8.90833,6094
8.91667,6067
8.92500,6046
8.93333,6031
8.94167,6023
8.95000,6019
8.95833,6021
8.96667,6027
8.97500,6034
8.98333,6044
8.99167,6055
9.00000,6070
9.00833,6084
9.01667,6095
9.02500,6107
9.03333,6122
9.04167,6138
9.05000,6155
9.05833,6169
9.06667,6182
9.07500,6190
9.08333,6192
9.09167,6192
9.10000,6189
9.10833,6182
9.11667,6172
9.12500,6158
9.13333,6144
9.14167,6131
9.15000,6116
9.15833,6095
9.16667,6071
9.17500,6044
9.18333,6016
9.19167,5984
9.20000,5948
9.20833,5909
9.21667,5867
9.22500,5822
9.23333,5776
9.24167,5728
9.25000,5679
9.25833,5629
9.26667,5578
9.27500,5524
9.28333,5467
9.29167,5405
9.30000,5340
9.30833,5273
9.31667,5207
9.32500,5138
9.33333,5067
9.34167,4998
9.35000,4931
9.35833,4864
9.36667,4797
9.37500,4730
9.38333,4665
9.39167,4602
9.40000,4538
9.40833,4475
9.41667,4413
9.42500,4352
9.43333,4291
9.44167,4232
9.45000,4175
9.45833,4118
9.46667,4065
9.47500,4013
9.48333,3961
9.49167,3914
9.50000,3870
9.50833,3827
9.51667,3783
9.52500,3741
9.53333,3699
9.54167,3657
9.55000,3616
9.55833,3576
9.56667,3540
9.57500,3507
9.58333,3474
9.59167,3443
9.60000,3413
9.60833,3385
9.61667,3359
9.62500,3334
9.63333,3309
9.64167,3283
9.65000,3259
9.65833,3235
9.66667,3214
9.67500,3195
9.68333,3174
9.69167,3155
9.70000,3138
9.70833,3121
9.71667,3103
9.72500,3088
9.73333,3071
9.74167,3050
9.75000,3031
9.75833,3011
9.76667,2989
9.77500,2968
9.78333,2947
9.79167,2924
9.80000,2903
9.80833,2883
9.81667,2864
9.82500,2845
9.83333,2825
9.84167,2803
9.85000,2781
9.85833,2760
9.86667,2737
9.87500,2712
9.88333,2689
9.89167,2665
9.90000,2644
9.90833,2626
9.91667,2609
9.92500,2593
9.93333,2578
9.94167,2564
9.95000,2550
9.95833,2535
9.96667,2517
9.97500,2499
9.98333,2485
9.99167,2472
10.00000,2461
10.00833,2449
10.01667,2443
10.02500,2436
10.03333,2429
10.04167,2425
10.05000,2418
10.05833,2411
10.06667,2405
10.07500,2400
10.08333,2393
10.09167,2386
10.10000,2380
10.10833,2374
10.11667,2370
10.12500,2369
10.13333,2367
10.14167,2366
10.15000,2368
10.15833,2365
10.16667,2359
10.17500,2354
10.18333,2350
10.19167,2345
10.20000,2342
10.20833,2338
10.21667,2334
10.22500,2331
10.23333,2327
10.24167,2327
10.25000,2324
10.25833,2320
10.26667,2317
10.27500,2312
10.28333,2307
10.29167,2306
10.30000,2302
10.30833,2297
10.31667,2291
10.32500,2288
10.33333,2283
10.34167,2279
10.35000,2276
10.35833,2273
10.36667,2273
10.37500,2274
10.38333,2274
10.39167,2273
10.40000,2271
10.40833,2267
10.41667,2262
10.42500,2256
10.43333,2250
10.44167,2246
10.45000,2243
10.45833,2242
10.46667,2240
10.47500,2237
10.48333,2236
10.49167,2232
10.50000,2228
10.50833,2221
10.51667,2213
10.52500,2204
10.53333,2195
10.54167,2187
10.55000,2179
10.55833,2175
10.56667,2172
10.57500,2167
10.58333,2162
10.59167,2159
10.60000,2157
10.60833,2154
10.61667,2150
10.62500,2144
10.63333,2137
10.64167,2130
10.65000,2124
10.65833,2119
10.66667,2115
10.67500,2114
10.68333,2114
10.69167,2114
10.70000,2111
10.70833,2105
10.71667,2097
10.72500,2091
10.73333,2084
10.74167,2075
10.75000,2064
10.75833,2052
10.76667,2036
10.77500,2021
10.78333,2006
10.79167,1991
10.80000,1978
10.80833,1966
10.81667,1952
10.82500,1939
10.83333,1927
10.84167,1913
10.85000,1900
10.85833,1884
10.86667,1868
10.87500,1853
10.88333,1841
10.89167,1831
10.90000,1821
10.90833,1812
10.91667,1804
10.92500,1798
10.93333,1791
10.94167,1786
10.95000,1779
10.95833,1773
10.96667,1766
10.97500,1759
10.98333,1753
10.99167,1747
11.00000,1741
11.00833,1738
11.01667,1738
11.02500,1736
11.03333,1734
11.04167,1735
11.05000,1734
11.05833,1733
11.06667,1733
11.07500,1732
11.08333,1732
11.09167,1734
11.10000,1740
11.10833,1747
11.11667,1755
11.12500,1762
11.13333,1771
11.14167,1784
11.15000,1798
11.15833,1813
11.16667,1826
11.17500,1837
11.18333,1852
11.19167,1868
11.20000,1884
11.20833,1904
11.21667,1924
11.22500,1947
11.23333,1971
11.24167,1997
11.25000,2021
11.25833,2045
11.26667,2071
11.27500,2097
11.28333,2123
11.29167,2147
11.30000,2168
11.30833,2189
11.31667,2213
11.32500,2237
11.33333,2258
11.34167,2277
11.35000,2293
11.35833,2308
11.36667,2321
11.37500,2331
11.38333,2337
11.39167,2340
11.40000,2340
11.40833,2339
11.41667,2336
11.42500,2332
11.43333,2330
11.44167,2327
11.45000,2322
11.45833,2317
11.46667,2313
11.47500,2307
11.48333,2300
11.49167,2295
11.50000,2291
11.50833,2287
11.51667,2284
11.52500,2280
11.53333,2277
11.54167,2276
11.55000,2275
11.55833,2272
11.56667,2272
11.57500,2271
11.58333,2269
11.59167,2268
11.60000,2265
11.60833,2260
11.61667,2252
11.62500,2246
11.63333,2238
11.64167,2229
11.65000,2218
11.65833,2206
11.66667,2197
11.67500,2187
11.68333,2175
11.69167,2162
11.70000,2145
11.70833,2127
11.71667,2107
11.72500,2085
11.73333,2063
11.74167,2042
11.75000,2021
11.75833,2000
11.76667,1981
11.77500,1964
11.78333,1945
11.79167,1924
11.80000,1902
11.80833,1882
11.81667,1863
11.82500,1840
11.83333,1817
11.84167,1794
11.85000,1773
11.85833,1754
11.86667,1737
11.87500,1722
11.88333,1706
11.89167,1686
11.90000,1669
11.90833,1651
11.91667,1632
11.92500,1615
11.93333,1597
11.94167,1578
11.95000,1561
11.95833,1543
11.96667,1527
11.97500,1513
11.98333,1499
11.99167,1487
12.00000,1476
12.00833,1467
12.01667,1458
12.02500,1450
12.03333,1442
12.04167,1435
12.05000,1428
12.05833,1422
12.06667,1413
12.07500,1407
12.08333,1402
12.09167,1400
12.10000,1400
12.10833,1398
12.11667,1397
12.12500,1399
12.13333,1397
12.14167,1392
12.15000,1388
12.15833,1383
12.16667,1375
12.17500,1366
12.18333,1359
12.19167,1354
12.20000,1349
12.20833,1344
12.21667,1340
12.22500,1334
12.23333,1324
12.24167,1314
12.25000,1304
12.25833,1292
12.26667,1279
12.27500,1266
12.28333,1253
12.29167,1242
12.30000,1233
12.30833,1225
12.31667,1216
12.32500,1207
12.33333,1197
12.34167,1186
12.35000,1178
12.35833,1170
12.36667,1160
12.37500,1148
12.38333,1138
12.39167,1130
12.40000,1121
12.40833,1116
12.41667,1115
12.42500,1113
12.43333,1110
12.44167,1110
12.45000,1113
12.45833,1113
12.46667,1111
12.47500,1110
12.48333,1109
12.49167,1108
12.50000,1112
12.50833,1115
12.51667,1115
12.52500,1113
12.53333,1113
12.54167,1113
12.55000,1114
12.55833,1115
12.56667,1114
12.57500,1110
12.58333,1103
12.59167,1093
12.60000,1084
12.60833,1074
12.61667,1063
12.62500,1052
12.63333,1040
12.64167,1024
12.65000,1008
12.65833,991
12.66667,976
12.67500,959
12.68333,942
12.69167,923
12.70000,903
12.70833,886
12.71667,869
12.72500,852
12.73333,839
12.74167,825
12.75000,815
12.75833,806
12.76667,796
12.77500,787
12.78333,777
12.79167,768
12.80000,761
12.80833,753
12.81667,745
12.82500,738
12.83333,733
12.84167,728
12.85000,724
12.85833,720
12.86667,716
12.87500,709
12.88333,702
12.89167,692
12.90000,681
12.90833,669
12.91667,655
12.92500,643
12.93333,633
12.94167,621
12.95000,610
12.95833,601
12.96667,591
12.97500,583
12.98333,573
12.99167,559
13.00000,547
13.00833,536
13.01667,523
13.02500,509
13.03333,494
13.04167,480
13.05000,469
13.05833,461
13.06667,455
13.07500,448
13.08333,440
13.09167,431
13.10000,420
13.10833,410
13.11667,399
13.12500,389
13.13333,376
13.14167,362
13.15000,348
13.15833,333
13.16667,320
13.17500,307
13.18333,294
13.19167,282
13.20000,271
13.20833,260
13.21667,246
13.22500,229
13.23333,211
13.24167,192
13.25000,174
13.25833,158
13.26667,143
13.27500,128
13.28333,113
13.29167,100
13.30000,88
13.30833,79
13.31667,69
13.32500,59
13.33333,49
13.34167,39
13.35000,28
13.35833,18
13.36667,9
13.37500,-1
13.38333,-6
13.39167,-10
13.40000,-14
13.40833,-16
13.41667,-17
13.42500,-19
13.43333,-20
13.44167,-18
13.45000,-20
13.45833,-26
13.46667,-32
13.47500,-38
13.48333,-44
13.49167,-50
13.50000,-58
13.50833,-67
13.51667,-78
13.52500,-91
13.53333,-104
13.54167,-119
13.55000,-135
13.55833,-152
13.56667,-171
13.57500,-192
13.58333,-213
13.59167,-234
13.60000,-255
13.60833,-272
13.61667,-290
13.62500,-307
13.63333,-325
13.64167,-342
13.65000,-359
13.65833,-375
13.66667,-388
13.67500,-401
13.68333,-413
13.69167,-426
13.70000,-438
13.70833,-447
13.71667,-453
13.72500,-459
13.73333,-465
13.74167,-473
13.75000,-482
13.75833,-490
13.76667,-497
13.77500,-505
13.78333,-511
13.79167,-518
13.80000,-522
13.80833,-530
13.81667,-536
13.82500,-540
13.83333,-543
13.84167,-547
13.85000,-552
13.85833,-557
13.86667,-563
13.87500,-567
13.88333,-575
13.89167,-585
13.90000,-596
13.90833,-606
13.91667,-614
13.92500,-620
13.93333,-626
13.94167,-631
13.95000,-634
13.95833,-641
13.96667,-648
13.97500,-655
13.98333,-664
13.99167,-673
14.00000,-684
14.00833,-693
14.01667,-700
14.02500,-710
14.03333,-719
14.04167,-726
14.05000,-730
14.05833,-737
14.06667,-743
14.07500,-748
14.08333,-754
14.09167,-759
14.10000,-766
14.10833,-772
14.11667,-780
14.12500,-786
14.13333,-791
14.14167,-796
14.15000,-797
14.15833,-799
14.16667,-800
14.17500,-804
14.18333,-809
14.19167,-815
14.20000,-820
14.20833,-825
14.21667,-831
14.22500,-841
14.23333,-851
14.24167,-857
14.25000,-862
14.25833,-866
14.26667,-868
14.27500,-873
14.28333,-878
14.29167,-881
14.30000,-887
14.30833,-894
14.31667,-898
14.32500,-906
14.33333,-916
14.34167,-923
14.35000,-929
14.35833,-934
14.36667,-940
14.37500,-945
14.38333,-950
14.39167,-951
14.40000,-955
14.40833,-961
14.41667,-969
14.42500,-975
14.43333,-980
14.44167,-985
14.45000,-993
14.45833,-1003
14.46667,-1010
14.47500,-1013
14.48333,-1017
14.49167,-1020
14.50000,-1022
14.50833,-1027
14.51667,-1035
14.52500,-1045
14.53333,-1054
14.54167,-1064
14.55000,-1074
14.55833,-1085
14.56667,-1095
14.57500,-1102
14.58333,-1108
14.59167,-1112
14.60000,-1116
14.60833,-1122
14.61667,-1126
14.62500,-1129
14.63333,-1132
14.64167,-1134
14.65000,-1136
14.65833,-1138
14.66667,-1139
14.67500,-1140
14.68333,-1142
14.69167,-1145
14.70000,-1148
14.70833,-1150
14.71667,-1153
14.72500,-1155
14.73333,-1160
14.74167,-1166
14.75000,-1173
14.75833,-1181
14.76667,-1189
14.77500,-1198
14.78333,-1210
14.79167,-1220
14.80000,-1225
14.80833,-1232
14.81667,-1242
14.82500,-1253
14.83333,-1265
14.84167,-1277
14.85000,-1287
14.85833,-1297
14.86667,-1307
14.87500,-1318
14.88333,-1332
14.89167,-1344
14.90000,-1355
14.90833,-1367
14.91667,-1379
14.92500,-1387
14.93333,-1394
14.94167,-1402
14.95000,-1409
14.95833,-1414
14.96667,-1420
14.97500,-1425
14.98333,-1430
14.99167,-1436
15.00000,-1440

[LC Status Trace(Pump A Pressure)]
Interval(msec),1000
# of Points,900
Start Time(min),0.000
End Time(min),14.983
Intensity Units,kgf/cm2
Intensity Multiplier,1
R.Time (min),Intensity
0.00000,213.9
0.01667,213.9
0.03333,213.9
0.05000,214.7
0.06667,216.3
0.08333,218.7
0.10000,221.3
0.11667,224.8
0.13333,225.2
0.15000,226.0
0.16667,224.2
0.18333,223.7
0.20000,223.2
0.21667,223.4
0.23333,223.3
0.25000,222.5
0.26667,220.2
0.28333,220.9
0.30000,220.9
0.31667,221.3
0.33333,222.0
0.35000,222.1
0.36667,221.5
0.38333,219.6
0.40000,220.6
0.41667,220.4
0.43333,221.2
0.45000,221.7
0.46667,221.2
0.48333,219.3
0.50000,220.2
0.51667,220.7
0.53333,220.8
0.55000,221.3
0.56667,221.6
0.58333,218.7
0.60000,219.1
0.61667,220.2
0.63333,220.7
0.65000,220.8
0.66667,221.3
0.68333,221.3
0.70000,218.7
0.71667,219.6
0.73333,219.9
0.75000,220.8
0.76667,220.9
0.78333,221.2
0.80000,219.5
0.81667,219.3
0.83333,219.4
0.85000,220.3
0.86667,220.4
0.88333,220.7
0.90000,221.2
0.91667,218.9
0.93333,219.1
0.95000,219.9
0.96667,220.8
0.98333,220.6
1.00000,220.7
1.01667,218.7
1.03333,219.0
1.05000,219.0
1.06667,220.2
1.08333,220.9
1.10000,220.4
1.11667,220.6
1.13333,218.7
1.15000,218.7
1.16667,219.5
1.18333,220.2
1.20000,220.8
1.21667,220.3
1.23333,220.6
1.25000,218.7
1.26667,219.4
1.28333,219.9
1.30000,220.6
1.31667,220.7
1.33333,220.2
1.35000,218.5
1.36667,219.3
1.38333,218.7
1.40000,219.6
1.41667,220.3
1.43333,220.6
1.45000,219.8
1.46667,218.6
1.48333,219.0
1.50000,219.4
1.51667,220.0
1.53333,220.4
1.55000,219.3
1.56667,217.8
1.58333,218.9
1.60000,219.0
1.61667,219.4
1.63333,220.0
1.65000,220.7
1.66667,218.7
1.68333,219.0
1.70000,219.3
1.71667,219.5
1.73333,220.2
1.75000,221.1
1.76667,221.6
1.78333,218.9
1.80000,219.8
1.81667,220.7
1.83333,220.9
1.85000,221.3
1.86667,221.9
1.88333,222.1
1.90000,219.3
1.91667,220.3
1.93333,221.2
1.95000,221.1
1.96667,221.5
1.98333,221.7
2.00000,219.5
2.01667,219.8
2.03333,220.6
2.05000,220.8
2.06667,220.8
2.08333,221.3
2.10000,221.3
2.11667,219.1
2.13333,219.4
2.15000,219.4
2.16667,220.7
2.18333,220.4
2.20000,220.8
2.21667,221.1
2.23333,218.9
2.25000,219.3
2.26667,219.9
2.28333,220.8
2.30000,220.4
2.31667,220.6
2.33333,218.7
2.35000,218.9
2.36667,219.0
2.38333,220.3
2.40000,220.8
2.41667,220.3
2.43333,218.6
2.45000,218.6
2.46667,218.9
2.48333,220.2
2.50000,220.8
2.51667,220.2
2.53333,219.4
2.55000,219.3
2.56667,219.4
2.58333,219.4
2.60000,220.2
2.61667,220.8
2.63333,220.6
2.65000,218.2
2.66667,219.3
2.68333,219.4
2.70000,219.4
2.71667,220.4
2.73333,220.7
2.75000,220.2
2.76667,218.3
2.78333,219.1
2.80000,219.6
2.81667,219.9
2.83333,220.4
2.85000,220.8
2.86667,218.1
2.88333,218.2
2.90000,219.3
2.91667,219.5
2.93333,220.4
2.95000,220.7
2.96667,220.8
2.98333,218.2
3.00000,219.1
3.01667,219.9
3.03333,220.0
3.05000,220.3
3.06667,220.7
3.08333,218.0
3.10000,218.2
3.11667,218.9
3.13333,219.9
3.15000,219.8
3.16667,220.6
3.18333,220.7
3.20000,220.6
3.21667,218.1
3.23333,219.3
3.25000,220.2
3.26667,219.9
3.28333,220.7
3.30000,220.3
3.31667,218.3
3.33333,218.7
3.35000,219.6
3.36667,220.3
3.38333,220.0
3.40000,220.6
3.41667,218.3
3.43333,218.7
3.45000,219.1
3.46667,220.0
3.48333,220.2
3.50000,220.3
3.51667,218.6
3.53333,219.0
3.55000,218.6
3.56667,219.6
3.58333,220.2
3.60000,220.2
3.61667,220.4
3.63333,218.3
3.65000,219.1
3.66667,219.1
3.68333,219.6
3.70000,220.6
3.71667,220.0
3.73333,220.2
3.75000,218.3
3.76667,218.6
3.78333,219.0
3.80000,220.0
3.81667,220.6
3.83333,219.9
3.85000,218.0
3.86667,219.1
3.88333,219.1
3.90000,219.5
3.91667,220.4
3.93333,220.3
3.95000,219.9
3.96667,218.3
3.98333,219.3
4.00000,219.1
4.01667,220.0
4.03333,220.7
4.05000,220.6
4.06667,219.9
4.08333,219.0
4.10000,219.0
4.11667,219.5
4.13333,219.9
4.15000,220.4
4.16667,219.8
4.18333,218.0
4.20000,218.2
4.21667,219.3
4.23333,219.6
4.25000,220.3
4.26667,220.6
4.28333,219.5
4.30000,218.3
4.31667,218.9
4.33333,219.6
4.35000,219.8
4.36667,220.2
4.38333,218.9
4.40000,217.8
4.41667,218.7
4.43333,219.6
4.45000,220.2
4.46667,220.0
4.48333,220.6
4.50000,218.2
4.51667,218.5
4.53333,219.3
4.55000,219.8
4.56667,219.9
4.58333,219.9
4.60000,220.6
4.61667,218.3
4.63333,218.5
4.65000,219.3
4.66667,220.0
4.68333,220.2
4.70000,220.0
4.71667,218.3
4.73333,218.2
4.75000,218.7
4.76667,219.8
4.78333,220.2
4.80000,219.9
4.81667,220.2
4.83333,218.1
4.85000,219.0
4.86667,219.1
4.88333,220.2
4.90000,220.4
4.91667,220.0
4.93333,218.2
4.95000,218.3
4.96667,218.7
4.98333,219.6
5.00000,220.3
5.01667,220.6
5.03333,220.0
5.05000,218.2
5.06667,218.5
5.08333,219.1
5.10000,219.6
5.11667,220.3
5.13333,220.6
5.15000,219.4
5.16667,218.7
5.18333,219.0
5.20000,219.0
5.21667,219.4
5.23333,220.4
5.25000,220.0
5.26667,218.3
5.28333,218.6
5.30000,219.3
5.31667,218.9
5.33333,219.9
5.35000,220.4
5.36667,217.7
5.38333,218.6
5.40000,218.9
5.41667,219.4
5.43333,219.8
5.45000,220.4
5.46667,220.6
5.48333,217.8
5.50000,218.7
5.51667,219.3
5.53333,219.5
5.55000,219.6
5.56667,220.4
5.58333,220.4
5.60000,217.8
5.61667,218.7
5.63333,219.4
5.65000,219.6
5.66667,219.8
5.68333,220.4
5.70000,218.1
5.71667,218.3
5.73333,218.7
5.75000,219.6
5.76667,219.6
5.78333,219.9
5.80000,220.3
5.81667,217.7
5.83333,218.2
5.85000,219.4
5.86667,220.2
5.88333,219.8
5.90000,219.9
5.91667,218.1
5.93333,218.2
5.95000,218.3
5.96667,219.8
5.98333,220.2
6.00000,219.8
6.01667,219.9
6.03333,218.1
6.05000,218.3
6.06667,218.5
6.08333,220.2
6.10000,220.2
6.11667,219.8
6.13333,219.0
6.15000,218.7
6.16667,218.5
6.18333,219.1
6.20000,220.2
6.21667,220.4
6.23333,220.0
6.25000,218.2
6.26667,218.7
6.28333,218.7
6.30000,219.6
6.31667,220.2
6.33333,220.3
6.35000,218.0
6.36667,218.7
6.38333,218.5
6.40000,219.5
6.41667,220.0
6.43333,220.4
6.45000,219.8
6.46667,218.0
6.48333,218.9
6.50000,219.1
6.51667,219.1
6.53333,219.9
6.55000,220.4
6.56667,217.6
6.58333,217.8
6.60000,218.9
6.61667,219.0
6.63333,219.4
6.65000,220.3
6.66667,220.3
6.68333,217.4
6.70000,218.5
6.71667,219.4
6.73333,219.6
6.75000,219.8
6.76667,220.3
6.78333,220.2
6.80000,217.8
6.81667,218.9
6.83333,219.4
6.85000,219.4
6.86667,220.0
6.88333,219.9
6.90000,218.0
6.91667,218.3
6.93333,219.3
6.95000,219.8
6.96667,219.6
6.98333,219.9
7.00000,220.3
7.01667,218.1
7.03333,218.2
7.05000,219.4
7.06667,219.8
7.08333,219.8
7.10000,219.8
7.11667,218.5
7.13333,218.0
7.15000,218.1
7.16667,219.3
7.18333,220.0
7.20000,219.6
7.21667,219.8
7.23333,218.1
7.25000,218.2
7.26667,218.7
7.28333,220.0
7.30000,220.0
7.31667,219.8
7.33333,218.0
7.35000,218.7
7.36667,218.9
7.38333,219.8
7.40000,220.0
7.41667,219.6
7.43333,217.7
7.45000,218.1
7.46667,218.7
7.48333,219.1
7.50000,219.8
7.51667,220.0
7.53333,219.6
7.55000,217.4
7.56667,218.7
7.58333,218.9
7.60000,219.0
7.61667,220.0
7.63333,220.2
7.65000,219.8
7.66667,218.0
7.68333,218.7
7.70000,218.5
7.71667,219.6
7.73333,220.2
7.75000,220.3
7.76667,217.4
7.78333,218.1
7.80000,218.7
7.81667,219.1
7.83333,219.5
7.85000,220.2
7.86667,219.1
7.88333,218.0
7.90000,218.6
7.91667,219.3
7.93333,219.5
7.95000,219.6
7.96667,220.3
7.98333,218.9
8.00000,217.4
8.01667,218.5
8.03333,219.3
8.05000,219.6
8.06667,219.6
8.08333,217.8
8.10000,217.8
8.11667,218.1
8.13333,219.0
8.15000,219.1
8.16667,219.4
8.18333,219.9
8.20000,220.2
8.21667,217.8
8.23333,218.2
8.25000,219.3
8.26667,219.8
8.28333,219.5
8.30000,219.9
8.31667,218.0
8.33333,218.1
8.35000,219.0
8.36667,219.9
8.38333,219.5
8.40000,219.8
8.41667,217.8
8.43333,217.8
8.45000,218.1
8.46667,219.4
8.48333,219.8
8.50000,219.6
8.51667,219.8
8.53333,217.8
8.55000,218.6
8.56667,218.7
8.58333,219.3
8.60000,220.0
8.61667,219.6
8.63333,219.6
8.65000,218.1
8.66667,218.2
8.68333,218.7
8.70000,219.9
8.71667,220.2
8.73333,219.6
8.75000,217.7
8.76667,218.6
8.78333,218.6
8.80000,219.1
8.81667,220.0
8.83333,220.2
8.85000,218.6
8.86667,218.3
8.88333,218.9
8.90000,218.6
8.91667,219.5
8.93333,220.2
8.95000,220.2
8.96667,217.8
8.98333,218.3
9.00000,218.6
9.01667,218.1
9.03333,219.5
9.05000,220.2
9.06667,220.3
9.08333,217.4
9.10000,218.5
9.11667,218.9
9.13333,219.1
9.15000,219.9
9.16667,220.2
9.18333,217.3
9.20000,218.1
9.21667,218.5
9.23333,219.4
9.25000,219.4
9.26667,219.6
9.28333,220.2
9.30000,218.1
9.31667,218.3
9.33333,219.4
9.35000,219.6
9.36667,219.5
9.38333,220.0
9.40000,217.4
9.41667,218.1
9.43333,219.0
9.45000,219.8
9.46667,219.8
9.48333,219.4
9.50000,219.9
9.51667,217.8
9.53333,218.0
9.55000,219.0
9.56667,219.9
9.58333,219.5
9.60000,219.8
9.61667,217.8
9.63333,218.1
9.65000,218.2
9.66667,219.5
9.68333,220.0
9.70000,219.5
9.71667,219.1
9.73333,217.8
9.75000,217.6
9.76667,218.7
9.78333,219.5
9.80000,220.0
9.81667,219.5
9.83333,219.5
9.85000,218.3
9.86667,218.3
9.88333,219.4
9.90000,219.9
9.91667,219.9
9.93333,219.5
9.95000,217.7
9.96667,218.5
9.98333,218.5
10.00000,219.3
10.01667,219.8
10.03333,220.0
10.05000,219.5
10.06667,217.6
10.08333,218.5
10.10000,218.7
10.11667,219.3
10.13333,220.0
10.15000,219.4
10.16667,217.3
10.18333,218.3
10.20000,219.0
10.21667,218.7
10.23333,218.7
10.25000,220.2
10.26667,220.2
10.28333,218.2
10.30000,219.1
10.31667,218.7
10.33333,219.4
10.35000,220.0
10.36667,219.9
10.38333,217.3
10.40000,218.1
10.41667,219.0
10.43333,219.3
10.45000,219.4
10.46667,219.4
10.48333,217.3
10.50000,217.3
10.51667,217.3
10.53333,219.0
10.55000,219.1
10.56667,219.5
10.58333,219.5
10.60000,217.7
10.61667,217.8
10.63333,218.3
10.65000,219.4
10.66667,219.6
10.68333,219.4
10.70000,218.7
10.71667,217.6
10.73333,218.0
10.75000,219.0
10.76667,219.6
10.78333,219.1
10.80000,219.6
10.81667,217.8
10.83333,217.7
10.85000,218.2
10.86667,218.9
10.88333,219.4
10.90000,219.4
10.91667,219.4
10.93333,217.7
10.95000,218.5
10.96667,218.7
10.98333,219.5
11.00000,219.9
11.01667,219.4
11.03333,217.4
11.05000,217.7
11.06667,217.8
11.08333,218.7
11.10000,219.3
11.11667,219.9
11.13333,219.5
11.15000,217.4
11.16667,218.5
11.18333,218.5
11.20000,218.5
11.21667,219.9
11.23333,219.9
11.25000,217.3
11.26667,218.3
11.28333,218.3
11.30000,218.9
11.31667,219.8
11.33333,219.9
11.35000,219.3
11.36667,217.7
11.38333,218.5
11.40000,219.0
11.41667,218.7
11.43333,219.1
11.45000,219.9
11.46667,219.9
11.48333,219.9
11.50000,218.2
11.51667,218.2
11.53333,219.1
11.55000,219.1
11.56667,219.1
11.58333,217.1
11.60000,217.6
11.61667,218.5
11.63333,218.7
11.65000,219.4
11.66667,219.8
11.68333,218.3
11.70000,217.7
11.71667,218.1
11.73333,219.0
11.75000,219.4
11.76667,219.6
11.78333,219.6
11.80000,219.6
11.81667,217.8
11.83333,219.0
11.85000,219.5
11.86667,219.5
11.88333,219.8
11.90000,219.8
11.91667,217.4
11.93333,218.0
11.95000,218.6
11.96667,219.5
11.98333,219.3
12.00000,219.5
12.01667,217.6
12.03333,217.8
12.05000,218.1
12.06667,219.0
12.08333,219.1
12.10000,219.1
12.11667,219.6
12.13333,217.7
12.15000,218.2
12.16667,218.0
12.18333,219.0
12.20000,219.0
12.21667,219.3
12.23333,217.8
12.25000,218.3
12.26667,218.3
12.28333,219.4
12.30000,219.6
12.31667,219.4
12.33333,217.4
12.35000,218.0
12.36667,217.8
12.38333,218.9
12.40000,218.9
12.41667,219.8
12.43333,219.8
12.45000,217.2
12.46667,217.2
12.48333,217.2
12.50000,218.3
12.51667,219.4
12.53333,219.8
12.55000,219.8
12.56667,218.0
12.58333,218.3
12.60000,218.5
12.61667,219.0
12.63333,219.8
12.65000,219.9
12.66667,217.2
12.68333,218.0
12.70000,218.6
12.71667,219.0
12.73333,219.3
12.75000,219.3
12.76667,217.1
12.78333,217.2
12.80000,217.2
12.81667,218.7
12.83333,218.7
12.85000,219.4
12.86667,219.4
12.88333,217.2
12.90000,217.8
12.91667,218.1
12.93333,219.0
12.95000,218.7
12.96667,219.4
12.98333,219.8
13.00000,217.1
13.01667,217.6
13.03333,218.7
13.05000,219.4
13.06667,219.0
13.08333,219.0
13.10000,217.4
13.11667,217.4
13.13333,217.8
13.15000,217.8
13.16667,217.8
13.18333,219.1
13.20000,219.1
13.21667,217.7
13.23333,217.8
13.25000,219.1
13.26667,219.4
13.28333,219.0
13.30000,219.3
13.31667,217.4
13.33333,217.8
13.35000,218.5
13.36667,219.3
13.38333,219.3
13.40000,219.3
13.41667,219.3
13.43333,219.3
13.45000,218.2
13.46667,218.2
13.48333,218.3
13.50000,219.5
13.51667,219.5
13.53333,217.6
13.55000,218.1
13.56667,218.1
13.58333,218.3
13.60000,219.5
13.61667,219.8
13.63333,219.3
13.65000,217.4
13.66667,218.2
13.68333,218.3
13.70000,218.3
13.71667,218.3
13.73333,219.9
13.75000,219.1
13.76667,218.1
13.78333,218.1
13.80000,218.1
13.81667,218.9
13.83333,218.9
13.85000,219.6
13.86667,219.6
13.88333,218.1
13.90000,218.7
13.91667,218.5
13.93333,219.1
13.95000,219.8
13.96667,219.6
13.98333,217.1
14.00000,218.0
14.01667,218.9
14.03333,218.9
14.05000,219.4
14.06667,219.4
14.08333,219.4
14.10000,217.1
14.11667,217.1
14.13333,219.0
14.15000,219.0
14.16667,219.6
14.18333,219.6
14.20000,217.6
14.21667,218.1
14.23333,219.0
14.25000,218.9
14.26667,219.3
14.28333,219.1
14.30000,217.3
14.31667,217.6
14.33333,218.7
14.35000,219.3
14.36667,219.3
14.38333,219.1
14.40000,219.1
14.41667,217.3
14.43333,217.6
14.45000,218.6
14.46667,218.6
14.48333,219.3
14.50000,219.3
14.51667,219.3
14.53333,218.1
14.55000,217.7
14.56667,219.3
14.58333,219.5
14.60000,219.6
14.61667,219.4
14.63333,217.3
14.65000,217.7
14.66667,218.2
14.68333,219.1
14.70000,219.5
14.71667,219.6
14.73333,217.1
14.75000,217.1
14.76667,218.1
14.78333,218.1
14.80000,218.1
14.81667,219.5
14.83333,219.5
14.85000,219.5
14.86667,218.0
14.88333,218.1
14.90000,218.3
14.91667,219.5
14.93333,219.6
14.95000,219.1
14.96667,218.1
14.98333,218.2

[LC Status Trace(Pump B Pressure)]
Interval(msec),1000
# of Points,900
Start Time(min),0.000
End Time(min),14.983
Intensity Units,kgf/cm2
Intensity Multiplier,1
R.Time (min),Intensity
0.00000,229.8
0.01667,229.8
0.03333,230.7
0.05000,230.7
0.06667,232.1
0.08333,234.6
0.10000,237.5
0.11667,241.5
0.13333,242.1
0.15000,240.1
0.16667,240.4
0.18333,239.1
0.20000,239.1
0.21667,239.7
0.23333,239.5
0.25000,238.6
0.26667,236.3
0.28333,237.2
0.30000,237.2
0.31667,237.3
0.33333,238.4
0.35000,238.4
0.36667,235.4
0.38333,235.8
0.40000,236.7
0.41667,236.2
0.43333,237.2
0.45000,238.0
0.46667,238.0
0.48333,235.4
0.50000,236.2
0.51667,236.4
0.53333,236.6
0.55000,237.5
0.56667,237.7
0.58333,237.3
0.60000,235.3
0.61667,235.9
0.63333,236.7
0.65000,236.8
0.66667,237.1
0.68333,236.9
0.70000,234.7
0.71667,235.5
0.73333,236.3
0.75000,236.8
0.76667,236.9
0.78333,237.3
0.80000,236.2
0.81667,235.3
0.83333,235.4
0.85000,236.4
0.86667,236.4
0.88333,237.2
0.90000,237.5
0.91667,235.0
0.93333,235.3
0.95000,236.2
0.96667,236.7
0.98333,236.6
1.00000,236.9
1.01667,235.1
1.03333,235.1
1.05000,235.1
1.06667,236.3
1.08333,237.1
1.10000,236.6
1.11667,236.9
1.13333,234.9
1.15000,235.1
1.16667,235.6
1.18333,236.6
1.20000,236.9
1.21667,236.4
1.23333,236.7
1.25000,234.7
1.26667,235.4
1.28333,236.0
1.30000,236.0
1.31667,236.9
1.33333,236.3
1.35000,236.3
1.36667,235.4
1.38333,234.9
1.40000,235.8
1.41667,236.3
1.43333,236.7
1.45000,235.4
1.46667,233.9
1.48333,235.0
1.50000,235.0
1.51667,235.4
1.53333,236.6
1.55000,236.0
1.56667,233.8
1.58333,234.7
1.60000,235.1
1.61667,235.1
1.63333,235.9
1.65000,236.8
1.66667,236.8
1.68333,235.0
1.70000,235.4
1.71667,235.8
1.73333,236.2
1.75000,237.3
1.76667,237.7
1.78333,235.0
1.80000,236.0
1.81667,236.7
1.83333,237.1
1.85000,237.2
1.86667,238.1
1.88333,235.4
1.90000,235.3
1.91667,236.4
1.93333,236.8
1.95000,237.1
1.96667,237.7
1.98333,238.0
2.00000,235.6
2.01667,235.6
2.03333,236.7
2.05000,237.1
2.06667,236.8
2.08333,237.5
2.10000,237.6
2.11667,234.7
2.13333,235.5
2.15000,236.2
2.16667,236.9
2.18333,236.7
2.20000,236.7
2.21667,237.1
2.23333,234.9
2.25000,235.4
2.26667,235.9
2.28333,236.7
2.30000,236.7
2.31667,236.7
2.33333,234.7
2.35000,234.9
2.36667,235.6
2.38333,236.4
2.40000,236.8
2.41667,236.4
2.43333,235.6
2.45000,235.0
2.46667,235.0
2.48333,236.4
2.50000,236.8
2.51667,236.9
2.53333,236.6
2.55000,234.7
2.56667,235.4
2.58333,235.3
2.60000,236.2
2.61667,236.7
2.63333,236.0
2.65000,234.3
2.66667,234.6
2.68333,235.3
2.70000,235.4
2.71667,236.6
2.73333,236.8
2.75000,236.3
2.76667,234.3
2.78333,235.1
2.80000,235.5
2.81667,236.0
2.83333,236.4
2.85000,236.9
2.86667,234.1
2.88333,235.1
2.90000,235.4
2.91667,235.5
2.93333,236.2
2.95000,236.8
2.96667,236.9
2.98333,233.9
3.00000,235.3
3.01667,236.0
3.03333,236.0
3.05000,236.3
3.06667,236.9
3.08333,233.9
3.10000,234.3
3.11667,235.3
3.13333,236.2
3.15000,235.9
3.16667,236.3
3.18333,236.8
3.20000,236.7
3.21667,234.3
3.23333,235.3
3.25000,236.2
3.26667,236.0
3.28333,236.9
3.30000,236.9
3.31667,234.3
3.33333,234.6
3.35000,235.8
3.36667,236.3
3.38333,235.9
3.40000,236.7
3.41667,235.9
3.43333,234.7
3.45000,235.1
3.46667,235.6
3.48333,236.2
3.50000,236.3
3.51667,236.7
3.53333,234.5
3.55000,234.6
3.56667,235.6
3.58333,236.2
3.60000,235.9
3.61667,236.3
3.63333,235.0
3.65000,235.1
3.66667,235.3
3.68333,236.3
3.70000,236.7
3.71667,236.2
3.73333,236.2
3.75000,234.5
3.76667,234.9
3.78333,235.1
3.80000,236.0
3.81667,236.7
3.83333,236.2
3.85000,234.1
3.86667,235.1
3.88333,235.1
3.90000,235.4
3.91667,236.6
3.93333,236.7
3.95000,236.2
3.96667,234.6
3.98333,235.3
4.00000,235.3
4.01667,235.9
4.03333,236.7
4.05000,236.8
4.06667,233.8
4.08333,235.1
4.10000,235.3
4.11667,235.4
4.13333,236.6
4.15000,236.7
4.16667,235.6
4.18333,233.8
4.20000,234.5
4.21667,235.1
4.23333,235.6
4.25000,236.4
4.26667,236.6
4.28333,233.7
4.30000,233.7
4.31667,234.9
4.33333,235.8
4.35000,235.9
4.36667,236.6
4.38333,236.7
4.40000,233.8
4.41667,234.6
4.43333,235.3
4.45000,236.2
4.46667,235.8
4.48333,236.7
4.50000,234.6
4.51667,234.1
4.53333,234.6
4.55000,235.9
4.56667,236.0
4.58333,236.0
4.60000,236.6
4.61667,234.5
4.63333,234.5
4.65000,235.0
4.66667,236.3
4.68333,236.0
4.70000,236.2
4.71667,234.3
4.73333,234.3
4.75000,234.7
4.76667,235.8
4.78333,236.3
4.80000,236.0
4.81667,236.3
4.83333,234.2
4.85000,234.5
4.86667,235.0
4.88333,236.2
4.90000,236.6
4.91667,236.0
4.93333,236.3
4.95000,234.3
4.96667,234.6
4.98333,235.9
5.00000,236.2
5.01667,236.6
5.03333,236.0
5.05000,234.2
5.06667,235.0
5.08333,235.0
5.10000,235.8
5.11667,236.6
5.13333,236.2
5.15000,235.3
5.16667,234.6
5.18333,235.0
5.20000,235.1
5.21667,235.4
5.23333,236.4
5.25000,236.3
5.26667,234.2
5.28333,234.9
5.30000,234.9
5.31667,234.7
5.33333,235.9
5.35000,236.6
5.36667,233.8
5.38333,233.7
5.40000,235.0
5.41667,235.3
5.43333,235.5
5.45000,236.4
5.46667,236.6
5.48333,233.7
5.50000,234.3
5.51667,234.9
5.53333,235.6
5.55000,235.6
5.56667,236.6
5.58333,236.6
5.60000,233.7
5.61667,234.3
5.63333,235.5
5.65000,235.6
5.66667,236.0
5.68333,236.6
5.70000,234.2
5.71667,234.5
5.73333,234.9
5.75000,235.6
5.76667,235.8
5.78333,236.0
5.80000,236.4
5.81667,233.9
5.83333,234.2
5.85000,235.3
5.86667,236.2
5.88333,235.8
5.90000,236.2
5.91667,234.2
5.93333,234.5
5.95000,234.6
5.96667,235.6
5.98333,236.0
6.00000,235.9
6.01667,235.9
6.03333,234.6
6.05000,234.3
6.06667,235.1
6.08333,236.2
6.10000,236.3
6.11667,236.0
6.13333,235.4
6.15000,234.1
6.16667,234.6
6.18333,235.0
6.20000,235.6
6.21667,236.4
6.23333,235.9
6.25000,234.2
6.26667,234.7
6.28333,234.9
6.30000,234.9
6.31667,236.3
6.33333,236.6
6.35000,233.9
6.36667,234.9
6.38333,234.9
6.40000,235.1
6.41667,235.5
6.43333,236.3
6.45000,236.0
6.46667,233.9
6.48333,234.9
6.50000,235.4
6.51667,235.1
6.53333,236.0
6.55000,236.6
6.56667,233.7
6.58333,233.8
6.60000,234.9
6.61667,235.5
6.63333,235.3
6.65000,236.3
6.66667,236.4
6.68333,233.7
6.70000,234.6
6.71667,235.5
6.73333,235.6
6.75000,235.8
6.76667,236.4
6.78333,236.0
6.80000,233.8
6.81667,234.7
6.83333,235.4
6.85000,235.4
6.86667,236.0
6.88333,235.5
6.90000,233.9
6.91667,234.3
6.93333,234.6
6.95000,235.9
6.96667,235.9
6.98333,236.4
7.00000,234.7
7.01667,234.1
7.03333,234.6
7.05000,235.4
7.06667,236.0
7.08333,235.9
7.10000,236.3
7.11667,233.9
7.13333,234.3
7.15000,234.3
7.16667,235.9
7.18333,236.2
7.20000,235.6
7.21667,236.0
7.23333,234.1
7.25000,234.3
7.26667,234.6
7.28333,236.0
7.30000,235.6
7.31667,235.8
7.33333,233.9
7.35000,234.9
7.36667,234.6
7.38333,235.3
7.40000,236.0
7.41667,236.3
7.43333,235.8
7.45000,234.1
7.46667,234.7
7.48333,235.3
7.50000,235.9
7.51667,236.0
7.53333,235.9
7.55000,233.6
7.56667,234.7
7.58333,234.7
7.60000,235.3
7.61667,236.2
7.63333,236.3
7.65000,235.8
7.66667,233.8
7.68333,234.9
7.70000,235.0
7.71667,235.6
7.73333,235.9
7.75000,236.3
7.76667,233.6
7.78333,233.8
7.80000,234.9
7.81667,235.1
7.83333,235.4
7.85000,236.3
7.86667,234.7
7.88333,233.7
7.90000,234.6
7.91667,235.3
7.93333,235.3
7.95000,235.6
7.96667,236.3
7.98333,233.6
8.00000,233.7
8.01667,234.9
8.03333,235.0
8.05000,235.5
8.06667,236.3
8.08333,233.9
8.10000,233.6
8.11667,233.7
8.13333,234.9
8.15000,235.3
8.16667,235.5
8.18333,236.0
8.20000,236.2
8.21667,233.8
8.23333,234.1
8.25000,235.3
8.26667,235.8
8.28333,235.9
8.30000,236.0
8.31667,233.8
8.33333,234.1
8.35000,234.7
8.36667,235.9
8.38333,236.0
8.40000,235.8
8.41667,236.0
8.43333,233.9
8.45000,234.2
8.46667,234.7
8.48333,236.2
8.50000,235.8
8.51667,235.8
8.53333,233.8
8.55000,234.6
8.56667,234.7
8.58333,235.1
8.60000,236.2
8.61667,235.6
8.63333,235.6
8.65000,234.1
8.66667,234.3
8.68333,235.1
8.70000,235.9
8.71667,236.2
8.73333,235.6
8.75000,233.7
8.76667,234.6
8.78333,234.7
8.80000,235.0
8.81667,236.2
8.83333,236.2
8.85000,235.1
8.86667,234.3
8.88333,235.0
8.90000,234.7
8.91667,235.8
8.93333,236.2
8.95000,236.3
8.96667,233.6
8.98333,234.6
9.00000,234.9
9.01667,235.1
9.03333,236.0
9.05000,236.2
9.06667,234.2
9.08333,234.2
9.10000,234.2
9.11667,235.1
9.13333,235.0
9.15000,235.5
9.16667,236.3
9.18333,233.9
9.20000,233.3
9.21667,234.3
9.23333,235.3
9.25000,235.4
9.26667,235.6
9.28333,233.9
9.30000,233.3
9.31667,233.9
9.33333,235.1
9.35000,235.6
9.36667,235.5
9.38333,235.9
9.40000,233.8
9.41667,233.6
9.43333,234.2
9.45000,235.4
9.46667,235.6
9.48333,235.8
9.50000,236.0
9.51667,233.8
9.53333,233.9
9.55000,235.0
9.56667,235.8
9.58333,235.5
9.60000,235.6
9.61667,233.7
9.63333,234.3
9.65000,234.1
9.66667,235.5
9.68333,236.0
9.70000,235.5
9.71667,235.1
9.73333,233.8
9.75000,233.9
9.76667,234.9
9.78333,235.3
9.80000,236.0
9.81667,235.6
9.83333,234.2
9.85000,234.6
9.86667,234.1
9.88333,235.4
9.90000,235.8
9.91667,236.0
9.93333,233.6
9.95000,233.7
9.96667,234.6
9.98333,234.6
10.00000,235.3
10.01667,236.0
10.03333,235.6
10.05000,233.6
10.06667,234.5
10.08333,234.7
10.10000,234.7
10.11667,235.1
10.13333,236.0
10.15000,236.0
10.16667,233.3
10.18333,234.3
10.20000,234.5
10.21667,234.9
10.23333,235.4
10.25000,236.0
10.26667,236.0
10.28333,234.2
10.30000,234.6
10.31667,234.9
10.33333,235.1
10.35000,235.9
10.36667,236.0
10.38333,233.2
10.40000,234.1
10.41667,234.5
10.43333,235.4
10.45000,235.3
10.46667,235.8
10.48333,232.8
10.50000,233.2
10.51667,234.1
10.53333,235.0
10.55000,235.1
10.56667,235.6
10.58333,235.9
10.60000,233.7
10.61667,233.9
10.63333,234.3
10.65000,235.5
10.66667,235.1
10.68333,235.9
10.70000,235.5
10.71667,233.6
10.73333,233.9
10.75000,234.9
10.76667,235.8
10.78333,235.4
10.80000,235.6
10.81667,233.6
10.83333,234.1
10.85000,234.3
10.86667,235.6
10.88333,235.5
10.90000,235.6
10.91667,234.7
10.93333,234.3
10.95000,233.9
10.96667,234.7
10.98333,235.9
11.00000,236.0
11.01667,235.5
11.03333,233.6
11.05000,234.3
11.06667,234.1
11.08333,235.4
11.10000,235.4
11.11667,235.9
11.13333,235.5
11.15000,233.7
11.16667,234.5
11.18333,234.5
11.20000,234.7
11.21667,235.8
11.23333,235.1
11.25000,233.3
11.26667,233.6
11.28333,234.5
11.30000,234.6
11.31667,235.3
11.33333,235.9
11.35000,235.4
11.36667,233.6
11.38333,234.2
11.40000,234.9
11.41667,234.7
11.43333,235.8
11.45000,236.0
11.46667,235.3
11.48333,234.2
11.50000,234.5
11.51667,235.0
11.53333,235.0
11.55000,235.8
11.56667,235.5
11.58333,233.0
11.60000,234.1
11.61667,235.0
11.63333,235.1
11.65000,235.4
11.66667,236.0
11.68333,233.2
11.70000,233.7
11.71667,234.9
11.73333,235.0
11.75000,235.1
11.76667,235.9
11.78333,236.0
11.80000,233.2
11.81667,233.9
11.83333,234.7
11.85000,235.4
11.86667,235.5
11.88333,236.2
11.90000,233.8
11.91667,233.8
11.93333,234.7
11.95000,235.1
11.96667,235.8
11.98333,235.5
12.00000,235.9
12.01667,233.6
12.03333,233.8
12.05000,234.5
12.06667,235.0
12.08333,235.1
12.10000,235.1
12.11667,235.8
12.13333,233.8
12.15000,234.2
12.16667,235.0
12.18333,235.5
12.20000,235.9
12.21667,235.4
12.23333,233.6
12.25000,234.5
12.26667,233.9
12.28333,235.5
12.30000,235.8
12.31667,235.9
12.33333,235.0
12.35000,233.8
12.36667,234.2
12.38333,234.5
12.40000,235.4
12.41667,235.8
12.43333,235.4
12.45000,233.2
12.46667,233.8
12.48333,234.3
12.50000,234.9
12.51667,235.3
12.53333,235.9
12.55000,233.3
12.56667,233.9
12.58333,234.3
12.60000,234.5
12.61667,235.3
12.63333,235.9
12.65000,235.9
12.66667,233.2
12.68333,234.3
12.70000,234.5
12.71667,234.9
12.73333,235.1
12.75000,235.9
12.76667,233.2
12.78333,233.0
12.80000,234.2
12.81667,235.1
12.83333,234.7
12.85000,235.5
12.86667,236.0
12.88333,233.0
12.90000,233.9
12.91667,234.7
12.93333,234.6
12.95000,235.0
12.96667,235.6
12.98333,233.6
13.00000,233.0
13.01667,233.9
13.03333,234.6
13.05000,235.4
13.06667,235.1
13.08333,235.8
13.10000,235.8
13.11667,233.4
13.13333,233.9
13.15000,234.6
13.16667,235.1
13.18333,235.3
13.20000,235.5
13.21667,233.6
13.23333,233.8
13.25000,234.5
13.26667,235.4
13.28333,235.1
13.30000,235.4
13.31667,235.0
13.33333,233.7
13.35000,233.9
13.36667,234.5
13.38333,235.6
13.40000,235.3
13.41667,235.3
13.43333,233.6
13.45000,234.2
13.46667,233.8
13.48333,235.0
13.50000,235.8
13.51667,235.3
13.53333,233.2
13.55000,233.8
13.56667,233.9
13.58333,234.3
13.60000,235.4
13.61667,235.9
13.63333,235.3
13.65000,233.3
13.66667,234.3
13.68333,234.3
13.70000,235.0
13.71667,235.8
13.73333,235.9
13.75000,232.9
13.76667,234.1
13.78333,234.2
13.80000,234.3
13.81667,235.4
13.83333,235.6
13.85000,235.6
13.86667,233.0
13.88333,234.2
13.90000,234.6
13.91667,234.9
13.93333,235.5
13.95000,235.8
13.96667,232.9
13.98333,233.8
14.00000,234.2
14.01667,234.9
14.03333,234.9
14.05000,235.4
14.06667,235.8
14.08333,233.2
14.10000,233.2
14.11667,234.1
14.13333,235.0
14.15000,235.0
14.16667,235.6
14.18333,235.6
14.20000,233.4
14.21667,233.7
14.23333,234.7
14.25000,234.9
14.26667,235.0
14.28333,235.8
14.30000,233.4
14.31667,233.4
14.33333,234.1
14.35000,235.0
14.36667,235.5
14.38333,235.1
14.40000,234.7
14.41667,233.4
14.43333,233.4
14.45000,234.6
14.46667,235.1
14.48333,235.1
14.50000,235.5
14.51667,234.1
14.53333,234.2
14.55000,233.9
14.56667,235.1
14.58333,235.5
14.60000,235.1
14.61667,233.4
14.63333,233.4
14.65000,233.4
14.66667,234.5
14.68333,235.1
14.70000,235.6
14.71667,235.3
14.73333,233.3
14.75000,234.1
14.76667,234.1
14.78333,234.5
14.80000,235.5
14.81667,235.4
14.83333,235.3
14.85000,233.6
14.86667,234.2
14.88333,234.5
14.90000,235.0
14.91667,235.6
14.93333,235.1
14.95000,232.9
14.96667,234.2
14.98333,233.9

[LC Status Trace(Sample Cooler Temp.)]
Interval(msec),1000
# of Points,900
Start Time(min),0.000
End Time(min),14.983
Intensity Units,C
Intensity Multiplier,1
R.Time (min),Intensity
0.00000,20.27
0.01667,20.27
0.03333,20.27
0.05000,20.27
0.06667,20.29
0.08333,20.29
0.10000,20.29
0.11667,20.29
0.13333,20.29
0.15000,20.29
0.16667,20.29
0.18333,20.29
0.20000,20.28
0.21667,20.28
0.23333,20.28
0.25000,20.28
0.26667,20.28
0.28333,20.28
0.30000,20.28
0.31667,20.28
0.33333,20.28
0.35000,20.28
0.36667,20.28
0.38333,20.27
0.40000,20.27
0.41667,20.27
0.43333,20.27
0.45000,20.27
0.46667,20.27
0.48333,20.27
0.50000,20.27
0.51667,20.27
0.53333,20.27
0.55000,20.27
0.56667,20.27
0.58333,20.27
0.60000,20.27
0.61667,20.27
0.63333,20.27
0.65000,20.27
0.66667,20.27
0.68333,20.27
0.70000,20.27
0.71667,20.27
0.73333,20.27
0.75000,20.27
0.76667,20.27
0.78333,20.27
0.80000,20.27
0.81667,20.27
0.83333,20.27
0.85000,20.27
0.86667,20.31
0.88333,20.31
0.90000,20.31
0.91667,20.31
0.93333,20.31
0.95000,20.31
0.96667,20.31
0.98333,20.31
1.00000,20.31
1.01667,20.31
1.03333,20.29
1.05000,20.29
1.06667,20.29
1.08333,20.29
1.10000,20.29
1.11667,20.29
1.13333,20.29
1.15000,20.29
1.16667,20.29
1.18333,20.29
1.20000,20.31
1.21667,20.31
1.23333,20.31
1.25000,20.31
1.26667,20.31
1.28333,20.31
1.30000,20.31
1.31667,20.31
1.33333,20.31
1.35000,20.31
1.36667,20.31
1.38333,20.29
1.40000,20.29
1.41667,20.29
1.43333,20.29
1.45000,20.29
1.46667,20.29
1.48333,20.29
1.50000,20.29
1.51667,20.29
1.53333,20.29
1.55000,20.29
1.56667,20.29
1.58333,20.29
1.60000,20.29
1.61667,20.29
1.63333,20.29
1.65000,20.29
1.66667,20.29
1.68333,20.29
1.70000,20.32
1.71667,20.32
1.73333,20.32
1.75000,20.32
1.76667,20.32
1.78333,20.32
1.80000,20.32
1.81667,20.32
1.83333,20.32
1.85000,20.32
1.86667,20.29
1.88333,20.29
1.90000,20.29
1.91667,20.29
1.93333,20.29
1.95000,20.29
1.96667,20.29
1.98333,20.29
2.00000,20.29
2.01667,20.29
2.03333,20.32
2.05000,20.32
2.06667,20.32
2.08333,20.32
2.10000,20.32
2.11667,20.32
2.13333,20.32
2.15000,20.32
2.16667,20.32
2.18333,20.32
2.20000,20.32
2.21667,20.32
2.23333,20.32
2.25000,20.32
2.26667,20.32
2.28333,20.32
2.30000,20.32
2.31667,20.32
2.33333,20.32
2.35000,20.32
2.36667,20.32
2.38333,20.32
2.40000,20.32
2.41667,20.32
2.43333,20.32
2.45000,20.32
2.46667,20.32
2.48333,20.32
2.50000,20.32
2.51667,20.32
2.53333,20.29
2.55000,20.29
2.56667,20.29
2.58333,20.29
2.60000,20.29
2.61667,20.29
2.63333,20.29
2.65000,20.29
2.66667,20.29
2.68333,20.29
2.70000,20.35
2.71667,20.35
2.73333,20.35
2.75000,20.35
2.76667,20.35
2.78333,20.35
2.80000,20.35
2.81667,20.35
2.83333,20.35
2.85000,20.35
2.86667,20.36
2.88333,20.36
2.90000,20.36
2.91667,20.36
2.93333,20.36
2.95000,20.36
2.96667,20.36
2.98333,20.36
3.00000,20.36
3.01667,20.36
3.03333,20.34
3.05000,20.34
3.06667,20.34
3.08333,20.34
3.10000,20.34
3.11667,20.34
3.13333,20.34
3.15000,20.34
3.16667,20.34
3.18333,20.34
3.20000,20.33
3.21667,20.33
3.23333,20.33
3.25000,20.33
3.26667,20.33
3.28333,20.33
3.30000,20.33
3.31667,20.33
3.33333,20.33
3.35000,20.33
3.36667,20.33
3.38333,20.33
3.40000,20.33
3.41667,20.33
3.43333,20.33
3.45000,20.33
3.46667,20.33
3.48333,20.33
3.50000,20.33
3.51667,20.33
3.53333,20.36
3.55000,20.36
3.56667,20.36
3.58333,20.36
3.60000,20.36
3.61667,20.36
3.63333,20.36
3.65000,20.36
3.66667,20.36
3.68333,20.36
3.70000,20.36
3.71667,20.36
3.73333,20.36
3.75000,20.36
3.76667,20.36
3.78333,20.36
3.80000,20.36
3.81667,20.36
3.83333,20.36
3.85000,20.36
3.86667,20.33
3.88333,20.33
3.90000,20.33
3.91667,20.33
3.93333,20.33
3.95000,20.33
3.96667,20.33
3.98333,20.33
4.00000,20.33
4.01667,20.33
4.03333,20.35
4.05000,20.35
4.06667,20.35
4.08333,20.35
4.10000,20.35
4.11667,20.35
4.13333,20.35
4.15000,20.35
4.16667,20.35
4.18333,20.35
4.20000,20.34
4.21667,20.34
4.23333,20.34
4.25000,20.34
4.26667,20.34
4.28333,20.34
4.30000,20.34
4.31667,20.34
4.33333,20.34
4.35000,20.34
4.36667,20.36
4.38333,20.36
4.40000,20.36
4.41667,20.36
4.43333,20.36
4.45000,20.36
4.46667,20.36
4.48333,20.36
4.50000,20.36
4.51667,20.36
4.53333,20.35
4.55000,20.35
4.56667,20.35
4.58333,20.35
4.60000,20.35
4.61667,20.35
4.63333,20.35
4.65000,20.35
4.66667,20.35
4.68333,20.35
4.70000,20.36
4.71667,20.36
4.73333,20.36
4.75000,20.36
4.76667,20.36
4.78333,20.36
4.80000,20.36
4.81667,20.36
4.83333,20.36
4.85000,20.36
4.86667,20.37
4.88333,20.37
4.90000,20.37
4.91667,20.37
4.93333,20.37
4.95000,20.37
4.96667,20.37
4.98333,20.37
5.00000,20.37
5.01667,20.37
5.03333,20.40
5.05000,20.40
5.06667,20.40
5.08333,20.40
5.10000,20.40
5.11667,20.40
5.13333,20.40
5.15000,20.40
5.16667,20.40
5.18333,20.40
5.20000,20.40
5.21667,20.40
5.23333,20.40
5.25000,20.40
5.26667,20.40
5.28333,20.40
5.30000,20.40
5.31667,20.40
5.33333,20.40
5.35000,20.40
5.36667,20.37
5.38333,20.37
5.40000,20.37
5.41667,20.37
5.43333,20.37
5.45000,20.37
5.46667,20.37
5.48333,20.37
5.50000,20.37
5.51667,20.37
5.53333,20.40
5.55000,20.40
5.56667,20.40
5.58333,20.40
5.60000,20.40
5.61667,20.40
5.63333,20.40
5.65000,20.40
5.66667,20.40
5.68333,20.40
5.70000,20.37
5.71667,20.37
5.73333,20.37
5.75000,20.37
5.76667,20.37
5.78333,20.37
5.80000,20.37
5.81667,20.37
5.83333,20.37
5.85000,20.37
5.86667,20.41
5.88333,20.41
5.90000,20.41
5.91667,20.41
5.93333,20.41
5.95000,20.41
5.96667,20.41
5.98333,20.41
6.00000,20.41
6.01667,20.41
6.03333,20.37
6.05000,20.37
6.06667,20.37
6.08333,20.37
6.10000,20.37
6.11667,20.37
6.13333,20.37
6.15000,20.37
6.16667,20.37
6.18333,20.37
6.20000,20.40
6.21667,20.40
6.23333,20.40
6.25000,20.40
6.26667,20.40
6.28333,20.40
6.30000,20.40
6.31667,20.40
6.33333,20.40
6.35000,20.40
6.36667,20.42
6.38333,20.42
6.40000,20.42
6.41667,20.42
6.43333,20.42
6.45000,20.42
6.46667,20.42
6.48333,20.42
6.50000,20.42
6.51667,20.42
6.53333,20.42
6.55000,20.42
6.56667,20.42
6.58333,20.42
6.60000,20.42
6.61667,20.42
6.63333,20.42
6.65000,20.42
6.66667,20.42
6.68333,20.42
6.70000,20.44
6.71667,20.44
6.73333,20.44
6.75000,20.44
6.76667,20.44
6.78333,20.44
6.80000,20.44
6.81667,20.44
6.83333,20.44
6.85000,20.44
6.86667,20.41
6.88333,20.41
6.90000,20.41
6.91667,20.41
6.93333,20.41
6.95000,20.41
6.96667,20.41
6.98333,20.41
7.00000,20.41
7.01667,20.41
7.03333,20.45
7.05000,20.45
7.06667,20.45
7.08333,20.45
7.10000,20.45
7.11667,20.45
7.13333,20.45
7.15000,20.45
7.16667,20.45
7.18333,20.45
7.20000,20.43
7.21667,20.43
7.23333,20.43
7.25000,20.43
7.26667,20.43
7.28333,20.43
7.30000,20.43
7.31667,20.43
7.33333,20.43
7.35000,20.43
7.36667,20.43
7.38333,20.43
7.40000,20.43
7.41667,20.43
7.43333,20.43
7.45000,20.43
7.46667,20.43
7.48333,20.43
7.50000,20.43
7.51667,20.43
7.53333,20.43
7.55000,20.43
7.56667,20.43
7.58333,20.43
7.60000,20.43
7.61667,20.43
7.63333,20.43
7.65000,20.43
7.66667,20.43
7.68333,20.43
7.70000,20.43
7.71667,20.43
7.73333,20.43
7.75000,20.43
7.76667,20.43
7.78333,20.43
7.80000,20.43
7.81667,20.43
7.83333,20.43
7.85000,20.43
7.86667,20.48
7.88333,20.48
7.90000,20.48
7.91667,20.48
7.93333,20.48
7.95000,20.48
7.96667,20.48
7.98333,20.48
8.00000,20.48
8.01667,20.48
8.03333,20.43
8.05000,20.43
8.06667,20.43
8.08333,20.43
8.10000,20.43
8.11667,20.43
8.13333,20.43
8.15000,20.43
8.16667,20.43
8.18333,20.43
8.20000,20.45
8.21667,20.45
8.23333,20.45
8.25000,20.45
8.26667,20.45
8.28333,20.45
8.30000,20.45
8.31667,20.45
8.33333,20.45
8.35000,20.45
8.36667,20.46
8.38333,20.46
8.40000,20.46
8.41667,20.46
8.43333,20.46
8.45000,20.46
8.46667,20.46
8.48333,20.46
8.50000,20.46
8.51667,20.46
8.53333,20.45
8.55000,20.45
8.56667,20.45
8.58333,20.45
8.60000,20.45
8.61667,20.45
8.63333,20.45
8.65000,20.45
8.66667,20.45
8.68333,20.45
8.70000,20.48
8.71667,20.48
8.73333,20.48
8.75000,20.48
8.76667,20.48
8.78333,20.48
8.80000,20.48
8.81667,20.48
8.83333,20.48
8.85000,20.48
8.86667,20.45
8.88333,20.45
8.90000,20.45
8.91667,20.45
8.93333,20.45
8.95000,20.45
8.96667,20.45
8.98333,20.45
9.00000,20.45
9.01667,20.45
9.03333,20.48
9.05000,20.48
9.06667,20.48
9.08333,20.48
9.10000,20.48
9.11667,20.48
9.13333,20.48
9.15000,20.48
9.16667,20.48
9.18333,20.48
9.20000,20.46
9.21667,20.46
9.23333,20.46
9.25000,20.46
9.26667,20.46
9.28333,20.46
9.30000,20.46
9.31667,20.46
9.33333,20.46
9.35000,20.46
9.36667,20.48
9.38333,20.48
9.40000,20.48
9.41667,20.48
9.43333,20.48
9.45000,20.48
9.46667,20.48
9.48333,20.48
9.50000,20.48
9.51667,20.48
9.53333,20.45
9.55000,20.45
9.56667,20.45
9.58333,20.45
9.60000,20.45
9.61667,20.45
9.63333,20.45
9.65000,20.45
9.66667,20.45
9.68333,20.45
9.70000,20.48
9.71667,20.48
9.73333,20.48
9.75000,20.48
9.76667,20.48
9.78333,20.48
9.80000,20.48
9.81667,20.48
9.83333,20.48
9.85000,20.48
9.86667,20.48
9.88333,20.48
9.90000,20.48
9.91667,20.48
9.93333,20.48
9.95000,20.48
9.96667,20.48
9.98333,20.48
10.00000,20.48
10.01667,20.48
10.03333,20.49
10.05000,20.49
10.06667,20.49
10.08333,20.49
10.10000,20.49
10.11667,20.49
10.13333,20.49
10.15000,20.49
10.16667,20.49
10.18333,20.49
10.20000,20.52
10.21667,20.52
10.23333,20.52
10.25000,20.52
10.26667,20.52
10.28333,20.52
10.30000,20.52
10.31667,20.52
10.33333,20.52
10.35000,20.49
10.36667,20.49
10.38333,20.49
10.40000,20.49
10.41667,20.49
10.43333,20.49
10.45000,20.49
10.46667,20.49
10.48333,20.49
10.50000,20.49
10.51667,20.49
10.53333,20.53
10.55000,20.53
10.56667,20.53
10.58333,20.53
10.60000,20.53
10.61667,20.53
10.63333,20.53
10.65000,20.53
10.66667,20.53
10.68333,20.53
10.70000,20.52
10.71667,20.52
10.73333,20.52
10.75000,20.52
10.76667,20.52
10.78333,20.52
10.80000,20.52
10.81667,20.52
10.83333,20.52
10.85000,20.49
10.86667,20.49
10.88333,20.49
10.90000,20.49
10.91667,20.49
10.93333,20.49
10.95000,20.49
10.96667,20.49
10.98333,20.49
11.00000,20.49
11.01667,20.49
11.03333,20.50
11.05000,20.50
11.06667,20.50
11.08333,20.50
11.10000,20.50
11.11667,20.50
11.13333,20.50
11.15000,20.50
11.16667,20.50
11.18333,20.50
11.20000,20.51
11.21667,20.51
11.23333,20.51
11.25000,20.51
11.26667,20.51
11.28333,20.51
11.30000,20.51
11.31667,20.51
11.33333,20.51
11.35000,20.54
11.36667,20.54
11.38333,20.54
11.40000,20.54
11.41667,20.54
11.43333,20.54
11.45000,20.54
11.46667,20.54
11.48333,20.54
11.50000,20.54
11.51667,20.51
11.53333,20.51
11.55000,20.51
11.56667,20.51
11.58333,20.51
11.60000,20.51
11.61667,20.51
11.63333,20.51
11.65000,20.51
11.66667,20.51
11.68333,20.51
11.70000,20.53
11.71667,20.53
11.73333,20.53
11.75000,20.53
11.76667,20.53
11.78333,20.53
11.80000,20.53
11.81667,20.53
11.83333,20.53
11.85000,20.55
11.86667,20.55
11.88333,20.55
11.90000,20.55
11.91667,20.55
11.93333,20.55
11.95000,20.55
11.96667,20.55
11.98333,20.55
12.00000,20.55
12.01667,20.55
12.03333,20.56
12.05000,20.56
12.06667,20.56
12.08333,20.56
12.10000,20.56
12.11667,20.56
12.13333,20.56
12.15000,20.56
12.16667,20.56
12.18333,20.55
12.20000,20.55
12.21667,20.55
12.23333,20.55
12.25000,20.55
12.26667,20.55
12.28333,20.55
12.30000,20.55
12.31667,20.55
12.33333,20.55
12.35000,20.53
12.36667,20.53
12.38333,20.53
12.40000,20.53
12.41667,20.53
12.43333,20.53
12.45000,20.53
12.46667,20.53
12.48333,20.53
12.50000,20.53
12.51667,20.55
12.53333,20.55
12.55000,20.55
12.56667,20.55
12.58333,20.55
12.60000,20.55
12.61667,20.55
12.63333,20.55
12.65000,20.55
12.66667,20.55
12.68333,20.55
12.70000,20.55
12.71667,20.55
12.73333,20.55
12.75000,20.55
12.76667,20.55
12.78333,20.55
12.80000,20.55
12.81667,20.55
12.83333,20.55
12.85000,20.55
12.86667,20.56
12.88333,20.56
12.90000,20.56
12.91667,20.56
12.93333,20.56
12.95000,20.56
12.96667,20.56
12.98333,20.56
13.00000,20.56
13.01667,20.56
13.03333,20.54
13.05000,20.54
13.06667,20.54
13.08333,20.54
13.10000,20.54
13.11667,20.54
13.13333,20.54
13.15000,20.54
13.16667,20.54
13.18333,20.55
13.20000,20.55
13.21667,20.55
13.23333,20.55
13.25000,20.55
13.26667,20.55
13.28333,20.55
13.30000,20.55
13.31667,20.55
13.33333,20.55
13.35000,20.58
13.36667,20.58
13.38333,20.58
13.40000,20.58
13.41667,20.58
13.43333,20.58
13.45000,20.58
13.46667,20.58
13.48333,20.58
13.50000,20.58
13.51667,20.56
13.53333,20.56
13.55000,20.56
13.56667,20.56
13.58333,20.56
13.60000,20.56
13.61667,20.56
13.63333,20.56
13.65000,20.56
13.66667,20.56
13.68333,20.57
13.70000,20.57
13.71667,20.57
13.73333,20.57
13.75000,20.57
13.76667,20.57
13.78333,20.57
13.80000,20.57
13.81667,20.57
13.83333,20.57
13.85000,20.56
13.86667,20.56
13.88333,20.56
13.90000,20.56
13.91667,20.56
13.93333,20.56
13.95000,20.56
13.96667,20.56
13.98333,20.56
14.00000,20.56
14.01667,20.60
14.03333,20.60
14.05000,20.60
14.06667,20.60
14.08333,20.60
14.10000,20.60
14.11667,20.60
14.13333,20.60
14.15000,20.60
14.16667,20.60
14.18333,20.57
14.20000,20.57
14.21667,20.57
14.23333,20.57
14.25000,20.57
14.26667,20.57
14.28333,20.57
14.30000,20.57
14.31667,20.57
14.33333,20.57
14.35000,20.56
14.36667,20.56
14.38333,20.56
14.40000,20.56
14.41667,20.56
14.43333,20.56
14.45000,20.56
14.46667,20.56
14.48333,20.56
14.50000,20.56
14.51667,20.57
14.53333,20.57
14.55000,20.57
14.56667,20.57
14.58333,20.57
14.60000,20.57
14.61667,20.57
14.63333,20.57
14.65000,20.57
14.66667,20.57
14.68333,20.58
14.70000,20.58
14.71667,20.58
14.73333,20.58
14.75000,20.58
14.76667,20.58
14.78333,20.58
14.80000,20.58
14.81667,20.58
14.83333,20.58
14.85000,20.59
14.86667,20.59
14.88333,20.59
14.90000,20.59
14.91667,20.59
14.93333,20.59
14.95000,20.59
14.96667,20.59
14.98333,20.59

[Fraction Collection Report]
# of Fractions,0

