[Header]
Application Name,LCsolution
Version,1.25
Data File Name,C:\LabSolutions\Data\aldolaze\Martina\aldolna adicija\batch_21022012\EtAc\6.lcd
Output Date,12.12.2023.
Output Time,11:19:25

[File Information]
Type,Data File
Generated,21.2.2012. 11:59:07
Generated by,Admin
Modified,21.2.2012. 12:15:50
Modified by,Admin

[Sample Information]
Operator Name,Admin
Acquired,21.2.2012. 11:59:34
Sample Type,0:Unknown
Level,0
Sample Name,6
Sample ID,
ISTD Amount 1,1
ISTD Amount 2,1
ISTD Amount 3,1
ISTD Amount 4,1
ISTD Amount 5,1
ISTD Amount 6,1
ISTD Amount 7,1
ISTD Amount 8,1
ISTD Amount 9,1
ISTD Amount 10,1
ISTD Amount 11,1
ISTD Amount 12,1
ISTD Amount 13,1
ISTD Amount 14,1
ISTD Amount 15,1
ISTD Amount 16,1
ISTD Amount 17,1
ISTD Amount 18,1
ISTD Amount 19,1
ISTD Amount 20,1
ISTD Amount 21,1
ISTD Amount 22,1
ISTD Amount 23,1
ISTD Amount 24,1
ISTD Amount 25,1
ISTD Amount 26,1
ISTD Amount 27,1
ISTD Amount 28,1
ISTD Amount 29,1
ISTD Amount 30,1
ISTD Amount 31,1
ISTD Amount 32,1
Sample Amount,1
Dilution Factor,1
Vial#,19
Injection Volume,20

[Original Files]
Data File,C:\LabSolutions\Data\aldolaze\Martina\aldolna adicija\batch_21022012\EtAc\6.lcd
Method File,C:\LabSolutions\Data\aldolaze\metoda3_2eluenta.lcm
Batch File,C:\LabSolutions\Data\aldolaze\Martina\baždarci\aldol-aldehid-01022012\lista.lcb
Report Format File,C:\LabSolutions\LCsolution\System\Default.lcr
Tuning File,

[File Description]


[Configuration]
# of Detectors,2
Detector ID,Detector A,AD2
Detector Name,Detector A,AD2
# of Channels,1,1

[Peak Table(Detector A-Ch1)]
# of Peaks,14
Peak#,R.Time,I.Time,F.Time,Area,Height,A/H,Conc.,Mark,ID#,Name,k',Plate #,Plate Ht.,Tailing,Resolution,Sep.Factor,Conc. %,Norm Conc.
1,0.670,0.617,1.033,1312,63,20.9670,0.0000,   ,,,0.000,50,2972.592,4.085,0.000,0.000,0.0000,0.0000
2,3.183,3.008,3.458,32522,1756,18.5170,0.0000,   ,,,3.750,674,222.680,0.000,5.791,0.000,0.0000,0.0000
3,3.723,3.458,3.758,27484,2450,11.2170,0.0000, V ,,,4.556,53,2833.980,0.000,0.426,1.215,0.0000,0.0000
4,4.044,3.758,4.958,12987060,773457,16.7910,0.0000, V ,1,RT4.044,5.035,1676,89.478,1.872,0.263,1.105,0.0000,0.0000
5,5.269,4.958,6.817,3483303,141642,24.5920,0.0000, V ,,,6.863,1689,88.816,0.000,2.698,1.363,0.0000,0.0000
6,7.196,6.817,7.642,1023610,40559,25.2370,0.0000, V ,,,9.740,2082,72.053,0.000,3.370,1.419,0.0000,0.0000
7,8.084,7.642,9.083,1536580,38274,40.1470,0.0000, V ,2,RT8.084,11.065,1090,137.676,0.000,1.103,1.136,0.0000,0.0000
8,9.472,9.083,10.708,544109,13658,39.8380,0.0000, V ,,,13.136,1873,80.096,0.000,1.496,1.187,0.0000,0.0000
9,10.991,10.708,11.350,54299,1550,35.0300,0.0000, V ,,,15.404,86,1737.977,0.000,0.542,1.173,0.0000,0.0000
10,11.863,11.350,12.700,252378,5764,43.7880,0.0000, V ,,,16.706,2176,68.920,0.000,0.303,1.084,0.0000,0.0000
11,12.962,12.700,13.150,36488,1461,24.9820,0.0000, V ,,,18.345,313,478.627,0.000,0.557,1.098,0.0000,0.0000
12,13.200,13.150,13.233,6810,1364,4.9940,0.0000, V ,,,18.701,11,13286.025,0.000,0.026,1.019,0.0000,0.0000
13,13.482,13.233,14.325,57106,1350,42.2870,0.0000, V ,,,19.122,122,1226.656,0.000,0.027,1.022,0.0000,0.0000
14,14.564,14.325,14.725,2183,123,17.7480,0.0000, V ,,,20.736,11223,13.365,0.000,0.399,1.084,0.0000,0.0000

[Peak Table(AD2)]
# of Peaks,0

[Peak Table(PDA-Ch1)]
# of Peaks,0

[Compound Results(Detector A)]
# of IDs,2
ID#,Name,R.Time,Area,Height,Conc.,Curve,3rd,2nd,1st,Constant,Conc. %,Norm Conc.
1,RT4.044,4.044,12987060,773457,0.0000,Linear,0.0,0.0,0.0,0.0,0.0000,0.0000
2,RT8.084,8.084,1536580,38274,0.0000,Linear,0.0,0.0,0.0,0.0,0.0000,0.0000

[Compound Results(AD2)]
# of IDs,0

[Compound Results(PDA)]
# of IDs,0

[Group Results(Detector A)]
# of Groups,0

[Group Results(AD2)]
# of Groups,0

[Group Results(PDA)]
# of Groups,0

[LC Chromatogram(Detector A-Ch1)]
Interval(msec),500
# of Points,1801
Start Time(min),0.000
End Time(min),15.000
Intensity Units,mV
Intensity Multiplier,0.001
Wavelength(nm),215
R.Time (min),Intensity
0.00000,-30
0.00833,-30
0.01667,-8
0.02500,1
0.03333,0
0.04167,-4
0.05000,-8
0.05833,-14
0.06667,-20
0.07500,-25
0.08333,-31
0.09167,-39
0.10000,-47
0.10833,-56
0.11667,-65
0.12500,-69
0.13333,-76
0.14167,-84
0.15000,-92
0.15833,-102
0.16667,-110
0.17500,-117
0.18333,-124
0.19167,-132
0.20000,-141
0.20833,-148
0.21667,-154
0.22500,-161
0.23333,-169
0.24167,-178
0.25000,-186
0.25833,-194
0.26667,-202
0.27500,-213
0.28333,-226
0.29167,-238
0.30000,-248
0.30833,-261
0.31667,-273
0.32500,-284
0.33333,-293
0.34167,-305
0.35000,-317
0.35833,-328
0.36667,-339
0.37500,-352
0.38333,-367
0.39167,-382
0.40000,-396
0.40833,-410
0.41667,-425
0.42500,-439
0.43333,-452
0.44167,-463
0.45000,-471
0.45833,-481
0.46667,-493
0.47500,-505
0.48333,-517
0.49167,-528
0.50000,-537
0.50833,-548
0.51667,-558
0.52500,-564
0.53333,-570
0.54167,-575
0.55000,-580
0.55833,-587
0.56667,-593
0.57500,-596
0.58333,-599
0.59167,-602
0.60000,-606
0.60833,-610
0.61667,-611
0.62500,-611
0.63333,-608
0.64167,-605
0.65000,-601
0.65833,-597
0.66667,-595
0.67500,-595
0.68333,-595
0.69167,-596
0.70000,-596
0.70833,-597
0.71667,-602
0.72500,-610
0.73333,-615
0.74167,-622
0.75000,-628
0.75833,-632
0.76667,-635
0.77500,-642
0.78333,-651
0.79167,-661
0.80000,-674
0.80833,-685
0.81667,-697
0.82500,-707
0.83333,-720
0.84167,-734
0.85000,-748
0.85833,-760
0.86667,-770
0.87500,-778
0.88333,-789
0.89167,-801
0.90000,-810
0.90833,-821
0.91667,-834
0.92500,-847
0.93333,-857
0.94167,-867
0.95000,-877
0.95833,-887
0.96667,-896
0.97500,-907
0.98333,-916
0.99167,-924
1.00000,-931
1.00833,-939
1.01667,-948
1.02500,-960
1.03333,-972
1.04167,-982
1.05000,-993
1.05833,-1003
1.06667,-1011
1.07500,-1017
1.08333,-1021
1.09167,-1026
1.10000,-1033
1.10833,-1039
1.11667,-1046
1.12500,-1052
1.13333,-1055
1.14167,-1059
1.15000,-1065
1.15833,-1070
1.16667,-1072
1.17500,-1072
1.18333,-1073
1.19167,-1071
1.20000,-1066
1.20833,-1063
1.21667,-1060
1.22500,-1059
1.23333,-1055
1.24167,-1049
1.25000,-1044
1.25833,-1039
1.26667,-1033
1.27500,-1027
1.28333,-1024
1.29167,-1020
1.30000,-1013
1.30833,-1007
1.31667,-1003
1.32500,-999
1.33333,-991
1.34167,-983
1.35000,-971
1.35833,-958
1.36667,-940
1.37500,-915
1.38333,-882
1.39167,-848
1.40000,-830
1.40833,-851
1.41667,-954
1.42500,-1175
1.43333,-1537
1.44167,-2029
1.45000,-2590
1.45833,-3105
1.46667,-3410
1.47500,-3349
1.48333,-2833
1.49167,-1873
1.50000,-589
1.50833,818
1.51667,2132
1.52500,3227
1.53333,4499
1.54167,7049
1.55000,11765
1.55833,19465
1.56667,31208
1.57500,47028
1.58333,65471
1.59167,84669
1.60000,103543
1.60833,121938
1.61667,139895
1.62500,157085
1.63333,172437
1.64167,184672
1.65000,193305
1.65833,198875
1.66667,201936
1.67500,202432
1.68333,200187
1.69167,195118
1.70000,187142
1.70833,176320
1.71667,162966
1.72500,147615
1.73333,130934
1.74167,113369
1.75000,94881
1.75833,75295
1.76667,54613
1.77500,32942
1.78333,10544
1.79167,-12067
1.80000,-34395
1.80833,-56906
1.81667,-81477
1.82500,-109008
1.83333,-137788
1.84167,-164885
1.85000,-187937
1.85833,-205847
1.86667,-218669
1.87500,-227106
1.88333,-232034
1.89167,-234239
1.90000,-234391
1.90833,-233172
1.91667,-231360
1.92500,-229659
1.93333,-228431
1.94167,-227617
1.95000,-226894
1.95833,-225914
1.96667,-224489
1.97500,-222611
1.98333,-220386
1.99167,-218018
2.00000,-215768
2.00833,-213863
2.01667,-212401
2.02500,-211316
2.03333,-210426
2.04167,-209516
2.05000,-208411
2.05833,-206999
2.06667,-205224
2.07500,-203045
2.08333,-200420
2.09167,-197301
2.10000,-193637
2.10833,-189394
2.11667,-184558
2.12500,-179127
2.13333,-173093
2.14167,-166432
2.15000,-159060
2.15833,-150826
2.16667,-141508
2.17500,-130732
2.18333,-117713
2.19167,-100226
2.20000,-73538
2.20833,-32422
2.21667,25413
2.22500,97651
2.23333,175398
2.24167,244694
2.25000,294862
2.25833,323918
2.26667,338347
2.27500,352074
2.28333,381186
2.29167,433791
2.30000,506390
2.30833,585595
2.31667,650347
2.32500,680558
2.33333,667745
2.34167,616771
2.35000,539745
2.35833,449572
2.36667,357395
2.37500,271960
2.38333,199018
2.39167,141106
2.40000,97930
2.40833,67364
2.41667,46588
2.42500,32855
2.43333,23893
2.44167,18026
2.45000,14108
2.45833,11394
2.46667,9421
2.47500,7908
2.48333,6690
2.49167,5678
2.50000,4817
2.50833,4072
2.51667,3434
2.52500,2896
2.53333,2450
2.54167,2090
2.55000,1813
2.55833,1610
2.56667,1475
2.57500,1400
2.58333,1372
2.59167,1384
2.60000,1430
2.60833,1499
2.61667,1584
2.62500,1679
2.63333,1778
2.64167,1877
2.65000,1969
2.65833,2050
2.66667,2116
2.67500,2164
2.68333,2191
2.69167,2196
2.70000,2179
2.70833,2141
2.71667,2084
2.72500,2004
2.73333,1898
2.74167,1766
2.75000,1613
2.75833,1440
2.76667,1250
2.77500,1045
2.78333,828
2.79167,598
2.80000,362
2.80833,122
2.81667,-113
2.82500,-338
2.83333,-554
2.84167,-756
2.85000,-941
2.85833,-1106
2.86667,-1256
2.87500,-1389
2.88333,-1500
2.89167,-1588
2.90000,-1654
2.90833,-1701
2.91667,-1725
2.92500,-1723
2.93333,-1701
2.94167,-1662
2.95000,-1604
2.95833,-1528
2.96667,-1437
2.97500,-1339
2.98333,-1233
2.99167,-1118
3.00000,-997
3.00833,-872
3.01667,-742
3.02500,-611
3.03333,-479
3.04167,-346
3.05000,-215
3.05833,-90
3.06667,31
3.07500,146
3.08333,255
3.09167,353
3.10000,441
3.10833,521
3.11667,595
3.12500,658
3.13333,718
3.14167,770
3.15000,815
3.15833,852
3.16667,879
3.17500,898
3.18333,909
3.19167,908
3.20000,899
3.20833,885
3.21667,865
3.22500,841
3.23333,816
3.24167,791
3.25000,769
3.25833,751
3.26667,736
3.27500,721
3.28333,702
3.29167,681
3.30000,656
3.30833,625
3.31667,588
3.32500,545
3.33333,495
3.34167,437
3.35000,374
3.35833,310
3.36667,245
3.37500,179
3.38333,113
3.39167,46
3.40000,-26
3.40833,-92
3.41667,-153
3.42500,-210
3.43333,-258
3.44167,-293
3.45000,-318
3.45833,-330
3.46667,-326
3.47500,-313
3.48333,-287
3.49167,-250
3.50000,-207
3.50833,-157
3.51667,-108
3.52500,-54
3.53333,4
3.54167,64
3.55000,124
3.55833,187
3.56667,252
3.57500,323
3.58333,402
3.59167,488
3.60000,578
3.60833,672
3.61667,771
3.62500,870
3.63333,971
3.64167,1073
3.65000,1172
3.65833,1264
3.66667,1350
3.67500,1427
3.68333,1498
3.69167,1557
3.70000,1606
3.70833,1643
3.71667,1668
3.72500,1678
3.73333,1674
3.74167,1666
3.75000,1653
3.75833,1646
3.76667,1653
3.77500,1698
3.78333,1809
3.79167,2036
3.80000,2446
3.80833,3132
3.81667,4230
3.82500,5927
3.83333,8464
3.84167,12155
3.85000,17413
3.85833,24738
3.86667,34747
3.87500,48170
3.88333,65800
3.89167,88454
3.90000,116897
3.90833,151571
3.91667,192546
3.92500,239512
3.93333,291584
3.94167,347326
3.95000,404964
3.95833,462449
3.96667,517816
3.97500,569410
3.98333,615915
3.99167,656509
4.00000,690759
4.00833,718558
4.01667,740108
4.02500,755823
4.03333,766200
4.04167,771704
4.05000,772729
4.05833,769579
4.06667,762456
4.07500,751427
4.08333,736578
4.09167,718054
4.10000,695973
4.10833,670648
4.11667,642528
4.12500,612153
4.13333,580220
4.14167,547363
4.15000,514074
4.15833,480858
4.16667,448205
4.17500,416483
4.18333,386038
4.19167,357158
4.20000,329960
4.20833,304492
4.21667,280782
4.22500,258802
4.23333,238543
4.24167,219987
4.25000,203047
4.25833,187624
4.26667,173631
4.27500,160945
4.28333,149461
4.29167,139095
4.30000,129753
4.30833,121338
4.31667,113752
4.32500,106884
4.33333,100656
4.34167,95008
4.35000,89871
4.35833,85187
4.36667,80912
4.37500,76997
4.38333,73395
4.39167,70070
4.40000,66983
4.40833,64116
4.41667,61447
4.42500,58953
4.43333,56611
4.44167,54409
4.45000,52331
4.45833,50363
4.46667,48497
4.47500,46729
4.48333,45049
4.49167,43456
4.50000,41944
4.50833,40508
4.51667,39147
4.52500,37854
4.53333,36625
4.54167,35457
4.55000,34349
4.55833,33294
4.56667,32288
4.57500,31327
4.58333,30413
4.59167,29549
4.60000,28728
4.60833,27949
4.61667,27213
4.62500,26518
4.63333,25864
4.64167,25246
4.65000,24662
4.65833,24109
4.66667,23582
4.67500,23081
4.68333,22597
4.69167,22130
4.70000,21679
4.70833,21242
4.71667,20815
4.72500,20396
4.73333,19984
4.74167,19579
4.75000,19181
4.75833,18791
4.76667,18405
4.77500,18026
4.78333,17649
4.79167,17276
4.80000,16910
4.80833,16550
4.81667,16200
4.82500,15857
4.83333,15522
4.84167,15203
4.85000,14899
4.85833,14604
4.86667,14320
4.87500,14053
4.88333,13803
4.89167,13566
4.90000,13343
4.90833,13135
4.91667,12947
4.92500,12785
4.93333,12652
4.94167,12553
4.95000,12493
4.95833,12482
4.96667,12534
4.97500,12665
4.98333,12896
4.99167,13254
5.00000,13769
5.00833,14480
5.01667,15428
5.02500,16664
5.03333,18239
5.04167,20195
5.05000,22563
5.05833,25359
5.06667,28579
5.07500,32189
5.08333,36144
5.09167,40373
5.10000,44803
5.10833,49358
5.11667,53981
5.12500,58652
5.13333,63404
5.14167,68302
5.15000,73433
5.15833,78902
5.16667,84776
5.17500,91056
5.18333,97682
5.19167,104505
5.20000,111293
5.20833,117793
5.21667,123749
5.22500,128932
5.23333,133194
5.24167,136479
5.25000,138808
5.25833,140263
5.26667,140976
5.27500,141083
5.28333,140704
5.29167,139921
5.30000,138773
5.30833,137256
5.31667,135344
5.32500,133020
5.33333,130272
5.34167,127094
5.35000,123498
5.35833,119517
5.36667,115204
5.37500,110641
5.38333,105899
5.39167,101044
5.40000,96146
5.40833,91253
5.41667,86415
5.42500,81679
5.43333,77085
5.44167,72665
5.45000,68445
5.45833,64432
5.46667,60629
5.47500,57045
5.48333,53683
5.49167,50542
5.50000,47625
5.50833,44919
5.51667,42410
5.52500,40084
5.53333,37930
5.54167,35935
5.55000,34091
5.55833,32387
5.56667,30810
5.57500,29348
5.58333,27993
5.59167,26732
5.60000,25561
5.60833,24477
5.61667,23468
5.62500,22531
5.63333,21659
5.64167,20843
5.65000,20079
5.65833,19365
5.66667,18695
5.67500,18068
5.68333,17481
5.69167,16932
5.70000,16419
5.70833,15939
5.71667,15488
5.72500,15067
5.73333,14675
5.74167,14310
5.75000,13974
5.75833,13663
5.76667,13372
5.77500,13099
5.78333,12847
5.79167,12611
5.80000,12395
5.80833,12197
5.81667,12018
5.82500,11854
5.83333,11706
5.84167,11571
5.85000,11449
5.85833,11343
5.86667,11249
5.87500,11163
5.88333,11084
5.89167,11010
5.90000,10943
5.90833,10882
5.91667,10827
5.92500,10777
5.93333,10732
5.94167,10693
5.95000,10657
5.95833,10624
5.96667,10596
5.97500,10571
5.98333,10548
5.99167,10523
6.00000,10494
6.00833,10463
6.01667,10433
6.02500,10402
6.03333,10372
6.04167,10340
6.05000,10304
6.05833,10268
6.06667,10228
6.07500,10185
6.08333,10140
6.09167,10093
6.10000,10041
6.10833,9980
6.11667,9913
6.12500,9840
6.13333,9764
6.14167,9686
6.15000,9605
6.15833,9518
6.16667,9425
6.17500,9328
6.18333,9232
6.19167,9134
6.20000,9031
6.20833,8924
6.21667,8813
6.22500,8696
6.23333,8575
6.24167,8453
6.25000,8328
6.25833,8200
6.26667,8071
6.27500,7943
6.28333,7815
6.29167,7688
6.30000,7562
6.30833,7434
6.31667,7307
6.32500,7176
6.33333,7043
6.34167,6909
6.35000,6776
6.35833,6643
6.36667,6511
6.37500,6381
6.38333,6252
6.39167,6123
6.40000,5996
6.40833,5873
6.41667,5754
6.42500,5632
6.43333,5513
6.44167,5393
6.45000,5273
6.45833,5154
6.46667,5040
6.47500,4926
6.48333,4811
6.49167,4699
6.50000,4589
6.50833,4482
6.51667,4379
6.52500,4279
6.53333,4180
6.54167,4086
6.55000,3993
6.55833,3899
6.56667,3811
6.57500,3726
6.58333,3642
6.59167,3559
6.60000,3479
6.60833,3405
6.61667,3333
6.62500,3263
6.63333,3196
6.64167,3132
6.65000,3068
6.65833,3007
6.66667,2948
6.67500,2887
6.68333,2825
6.69167,2768
6.70000,2716
6.70833,2664
6.71667,2611
6.72500,2562
6.73333,2516
6.74167,2470
6.75000,2426
6.75833,2383
6.76667,2342
6.77500,2302
6.78333,2263
6.79167,2227
6.80000,2197
6.80833,2176
6.81667,2166
6.82500,2170
6.83333,2188
6.84167,2223
6.85000,2281
6.85833,2364
6.86667,2481
6.87500,2634
6.88333,2831
6.89167,3078
6.90000,3386
6.90833,3761
6.91667,4210
6.92500,4743
6.93333,5370
6.94167,6103
6.95000,6949
6.95833,7909
6.96667,8979
6.97500,10163
6.98333,11464
6.99167,12875
7.00000,14388
7.00833,15996
7.01667,17674
7.02500,19400
7.03333,21158
7.04167,22928
7.05000,24696
7.05833,26439
7.06667,28126
7.07500,29727
7.08333,31223
7.09167,32600
7.10000,33858
7.10833,34995
7.11667,36010
7.12500,36900
7.13333,37667
7.14167,38319
7.15000,38860
7.15833,39307
7.16667,39662
7.17500,39932
7.18333,40120
7.19167,40232
7.20000,40267
7.20833,40230
7.21667,40121
7.22500,39942
7.23333,39685
7.24167,39348
7.25000,38931
7.25833,38435
7.26667,37853
7.27500,37183
7.28333,36431
7.29167,35606
7.30000,34715
7.30833,33764
7.31667,32757
7.32500,31705
7.33333,30611
7.34167,29485
7.35000,28344
7.35833,27199
7.36667,26054
7.37500,24923
7.38333,23809
7.39167,22712
7.40000,21642
7.40833,20605
7.41667,19603
7.42500,18646
7.43333,17732
7.44167,16858
7.45000,16024
7.45833,15231
7.46667,14482
7.47500,13778
7.48333,13114
7.49167,12490
7.50000,11908
7.50833,11364
7.51667,10859
7.52500,10392
7.53333,9960
7.54167,9564
7.55000,9207
7.55833,8883
7.56667,8588
7.57500,8323
7.58333,8094
7.59167,7899
7.60000,7734
7.60833,7601
7.61667,7501
7.62500,7430
7.63333,7392
7.64167,7384
7.65000,7409
7.65833,7470
7.66667,7565
7.67500,7693
7.68333,7863
7.69167,8074
7.70000,8325
7.70833,8624
7.71667,8970
7.72500,9360
7.73333,9797
7.74167,10284
7.75000,10823
7.75833,11414
7.76667,12058
7.77500,12750
7.78333,13492
7.79167,14284
7.80000,15127
7.80833,16017
7.81667,16951
7.82500,17914
7.83333,18900
7.84167,19906
7.85000,20925
7.85833,21953
7.86667,22982
7.87500,24001
7.88333,25004
7.89167,25984
7.90000,26940
7.90833,27869
7.91667,28768
7.92500,29632
7.93333,30457
7.94167,31235
7.95000,31964
7.95833,32650
7.96667,33294
7.97500,33900
7.98333,34466
7.99167,34990
8.00000,35476
8.00833,35929
8.01667,36342
8.02500,36713
8.03333,37050
8.04167,37343
8.05000,37591
8.05833,37793
8.06667,37947
8.07500,38049
8.08333,38103
8.09167,38105
8.10000,38056
8.10833,37959
8.11667,37814
8.12500,37615
8.13333,37369
8.14167,37074
8.15000,36732
8.15833,36356
8.16667,35948
8.17500,35505
8.18333,35030
8.19167,34523
8.20000,33988
8.20833,33434
8.21667,32860
8.22500,32274
8.23333,31677
8.24167,31070
8.25000,30452
8.25833,29826
8.26667,29197
8.27500,28564
8.28333,27935
8.29167,27309
8.30000,26683
8.30833,26057
8.31667,25432
8.32500,24816
8.33333,24208
8.34167,23610
8.35000,23019
8.35833,22437
8.36667,21863
8.37500,21300
8.38333,20750
8.39167,20212
8.40000,19685
8.40833,19169
8.41667,18658
8.42500,18159
8.43333,17671
8.44167,17195
8.45000,16730
8.45833,16277
8.46667,15838
8.47500,15409
8.48333,14990
8.49167,14585
8.50000,14190
8.50833,13808
8.51667,13439
8.52500,13074
8.53333,12719
8.54167,12378
8.55000,12046
8.55833,11727
8.56667,11422
8.57500,11129
8.58333,10846
8.59167,10571
8.60000,10306
8.60833,10051
8.61667,9805
8.62500,9568
8.63333,9339
8.64167,9120
8.65000,8911
8.65833,8709
8.66667,8517
8.67500,8332
8.68333,8156
8.69167,7990
8.70000,7830
8.70833,7671
8.71667,7521
8.72500,7376
8.73333,7236
8.74167,7102
8.75000,6972
8.75833,6845
8.76667,6723
8.77500,6607
8.78333,6496
8.79167,6388
8.80000,6284
8.80833,6184
8.81667,6085
8.82500,5988
8.83333,5897
8.84167,5804
8.85000,5712
8.85833,5622
8.86667,5536
8.87500,5450
8.88333,5364
8.89167,5280
8.90000,5200
8.90833,5122
8.91667,5042
8.92500,4962
8.93333,4884
8.94167,4810
8.95000,4736
8.95833,4664
8.96667,4592
8.97500,4524
8.98333,4457
8.99167,4395
9.00000,4335
9.00833,4280
9.01667,4226
9.02500,4175
9.03333,4131
9.04167,4088
9.05000,4049
9.05833,4017
9.06667,3994
9.07500,3978
9.08333,3969
9.09167,3970
9.10000,3983
9.10833,4007
9.11667,4044
9.12500,4097
9.13333,4164
9.14167,4248
9.15000,4347
9.15833,4462
9.16667,4597
9.17500,4753
9.18333,4927
9.19167,5124
9.20000,5342
9.20833,5584
9.21667,5850
9.22500,6138
9.23333,6447
9.24167,6773
9.25000,7115
9.25833,7471
9.26667,7840
9.27500,8220
9.28333,8606
9.29167,8992
9.30000,9378
9.30833,9762
9.31667,10140
9.32500,10509
9.33333,10869
9.34167,11216
9.35000,11543
9.35833,11847
9.36667,12127
9.37500,12378
9.38333,12603
9.39167,12804
9.40000,12980
9.40833,13134
9.41667,13265
9.42500,13376
9.43333,13471
9.44167,13548
9.45000,13608
9.45833,13650
9.46667,13675
9.47500,13681
9.48333,13677
9.49167,13663
9.50000,13639
9.50833,13603
9.51667,13557
9.52500,13501
9.53333,13433
9.54167,13354
9.55000,13263
9.55833,13157
9.56667,13037
9.57500,12904
9.58333,12759
9.59167,12599
9.60000,12424
9.60833,12233
9.61667,12025
9.62500,11803
9.63333,11570
9.64167,11325
9.65000,11070
9.65833,10806
9.66667,10533
9.67500,10249
9.68333,9962
9.69167,9674
9.70000,9385
9.70833,9096
9.71667,8807
9.72500,8520
9.73333,8237
9.74167,7958
9.75000,7686
9.75833,7421
9.76667,7164
9.77500,6919
9.78333,6681
9.79167,6452
9.80000,6232
9.80833,6021
9.81667,5816
9.82500,5621
9.83333,5435
9.84167,5255
9.85000,5081
9.85833,4917
9.86667,4761
9.87500,4615
9.88333,4475
9.89167,4340
9.90000,4213
9.90833,4093
9.91667,3977
9.92500,3867
9.93333,3761
9.94167,3661
9.95000,3566
9.95833,3476
9.96667,3391
9.97500,3311
9.98333,3236
9.99167,3165
10.00000,3094
10.00833,3027
10.01667,2966
10.02500,2909
10.03333,2855
10.04167,2803
10.05000,2754
10.05833,2707
10.06667,2663
10.07500,2622
10.08333,2584
10.09167,2549
10.10000,2516
10.10833,2487
10.11667,2459
10.12500,2432
10.13333,2406
10.14167,2382
10.15000,2358
10.15833,2335
10.16667,2312
10.17500,2289
10.18333,2267
10.19167,2247
10.20000,2227
10.20833,2207
10.21667,2188
10.22500,2172
10.23333,2153
10.24167,2132
10.25000,2109
10.25833,2085
10.26667,2062
10.27500,2038
10.28333,2017
10.29167,1997
10.30000,1977
10.30833,1956
10.31667,1938
10.32500,1921
10.33333,1903
10.34167,1885
10.35000,1868
10.35833,1853
10.36667,1834
10.37500,1814
10.38333,1798
10.39167,1783
10.40000,1770
10.40833,1760
10.41667,1750
10.42500,1742
10.43333,1739
10.44167,1734
10.45000,1726
10.45833,1721
10.46667,1715
10.47500,1707
10.48333,1698
10.49167,1692
10.50000,1688
10.50833,1685
10.51667,1681
10.52500,1677
10.53333,1672
10.54167,1667
10.55000,1663
10.55833,1659
10.56667,1654
10.57500,1647
10.58333,1640
10.59167,1632
10.60000,1625
10.60833,1619
10.61667,1614
10.62500,1610
10.63333,1604
10.64167,1601
10.65000,1600
10.65833,1597
10.66667,1595
10.67500,1593
10.68333,1593
10.69167,1592
10.70000,1591
10.70833,1590
10.71667,1590
10.72500,1592
10.73333,1596
10.74167,1603
10.75000,1608
10.75833,1615
10.76667,1622
10.77500,1631
10.78333,1641
10.79167,1651
10.80000,1658
10.80833,1664
10.81667,1670
10.82500,1675
10.83333,1681
10.84167,1689
10.85000,1698
10.85833,1708
10.86667,1718
10.87500,1727
10.88333,1734
10.89167,1739
10.90000,1743
10.90833,1746
10.91667,1752
10.92500,1758
10.93333,1763
10.94167,1766
10.95000,1768
10.95833,1770
10.96667,1774
10.97500,1777
10.98333,1780
10.99167,1784
11.00000,1783
11.00833,1781
11.01667,1778
11.02500,1772
11.03333,1765
11.04167,1758
11.05000,1751
11.05833,1743
11.06667,1737
11.07500,1727
11.08333,1718
11.09167,1708
11.10000,1697
11.10833,1685
11.11667,1672
11.12500,1659
11.13333,1646
11.14167,1633
11.15000,1618
11.15833,1605
11.16667,1595
11.17500,1585
11.18333,1574
11.19167,1565
11.20000,1555
11.20833,1546
11.21667,1540
11.22500,1536
11.23333,1530
11.24167,1524
11.25000,1517
11.25833,1509
11.26667,1505
11.27500,1503
11.28333,1502
11.29167,1501
11.30000,1500
11.30833,1499
11.31667,1500
11.32500,1498
11.33333,1493
11.34167,1490
11.35000,1489
11.35833,1491
11.36667,1492
11.37500,1494
11.38333,1497
11.39167,1501
11.40000,1506
11.40833,1513
11.41667,1522
11.42500,1534
11.43333,1544
11.44167,1556
11.45000,1572
11.45833,1592
11.46667,1615
11.47500,1642
11.48333,1672
11.49167,1707
11.50000,1751
11.50833,1801
11.51667,1854
11.52500,1913
11.53333,1978
11.54167,2051
11.55000,2133
11.55833,2220
11.56667,2312
11.57500,2412
11.58333,2519
11.59167,2635
11.60000,2758
11.60833,2888
11.61667,3024
11.62500,3167
11.63333,3317
11.64167,3470
11.65000,3627
11.65833,3785
11.66667,3944
11.67500,4103
11.68333,4261
11.69167,4415
11.70000,4570
11.70833,4721
11.71667,4868
11.72500,5011
11.73333,5149
11.74167,5276
11.75000,5395
11.75833,5504
11.76667,5606
11.77500,5697
11.78333,5776
11.79167,5844
11.80000,5903
11.80833,5954
11.81667,5997
11.82500,6033
11.83333,6061
11.84167,6086
11.85000,6104
11.85833,6115
11.86667,6118
11.87500,6115
11.88333,6109
11.89167,6099
11.90000,6089
11.90833,6078
11.91667,6067
11.92500,6055
11.93333,6043
11.94167,6027
11.95000,6009
11.95833,5990
11.96667,5966
11.97500,5940
11.98333,5910
11.99167,5876
12.00000,5838
12.00833,5797
12.01667,5750
12.02500,5701
12.03333,5650
12.04167,5593
12.05000,5530
12.05833,5459
12.06667,5383
12.07500,5304
12.08333,5221
12.09167,5134
12.10000,5045
12.10833,4950
12.11667,4851
12.12500,4751
12.13333,4654
12.14167,4556
12.15000,4456
12.15833,4358
12.16667,4261
12.17500,4163
12.18333,4066
12.19167,3969
12.20000,3873
12.20833,3779
12.21667,3687
12.22500,3598
12.23333,3511
12.24167,3425
12.25000,3342
12.25833,3263
12.26667,3188
12.27500,3117
12.28333,3049
12.29167,2982
12.30000,2917
12.30833,2855
12.31667,2795
12.32500,2737
12.33333,2682
12.34167,2627
12.35000,2574
12.35833,2523
12.36667,2476
12.37500,2433
12.38333,2393
12.39167,2354
12.40000,2319
12.40833,2287
12.41667,2254
12.42500,2221
12.43333,2190
12.44167,2161
12.45000,2134
12.45833,2108
12.46667,2084
12.47500,2061
12.48333,2040
12.49167,2018
12.50000,1996
12.50833,1973
12.51667,1952
12.52500,1933
12.53333,1914
12.54167,1894
12.55000,1873
12.55833,1851
12.56667,1832
12.57500,1810
12.58333,1789
12.59167,1770
12.60000,1752
12.60833,1735
12.61667,1721
12.62500,1708
12.63333,1693
12.64167,1680
12.65000,1666
12.65833,1651
12.66667,1639
12.67500,1630
12.68333,1624
12.69167,1620
12.70000,1618
12.70833,1618
12.71667,1619
12.72500,1623
12.73333,1631
12.74167,1640
12.75000,1645
12.75833,1653
12.76667,1665
12.77500,1680
12.78333,1697
12.79167,1713
12.80000,1729
12.80833,1744
12.81667,1761
12.82500,1779
12.83333,1798
12.84167,1818
12.85000,1836
12.85833,1853
12.86667,1866
12.87500,1878
12.88333,1890
12.89167,1902
12.90000,1915
12.90833,1927
12.91667,1939
12.92500,1949
12.93333,1958
12.94167,1964
12.95000,1965
12.95833,1966
12.96667,1967
12.97500,1966
12.98333,1965
12.99167,1962
13.00000,1956
13.00833,1952
13.01667,1946
13.02500,1942
13.03333,1940
13.04167,1940
13.05000,1939
13.05833,1936
13.06667,1930
13.07500,1924
13.08333,1916
13.09167,1913
13.10000,1910
13.10833,1906
13.11667,1905
13.12500,1903
13.13333,1902
13.14167,1902
13.15000,1901
13.15833,1901
13.16667,1904
13.17500,1905
13.18333,1904
13.19167,1903
13.20000,1903
13.20833,1900
13.21667,1897
13.22500,1893
13.23333,1890
13.24167,1891
13.25000,1892
13.25833,1893
13.26667,1892
13.27500,1891
13.28333,1890
13.29167,1889
13.30000,1888
13.30833,1889
13.31667,1889
13.32500,1886
13.33333,1885
13.34167,1888
13.35000,1890
13.35833,1893
13.36667,1898
13.37500,1901
13.38333,1904
13.39167,1909
13.40000,1914
13.40833,1919
13.41667,1922
13.42500,1923
13.43333,1923
13.44167,1923
13.45000,1923
13.45833,1926
13.46667,1928
13.47500,1928
13.48333,1929
13.49167,1929
13.50000,1925
13.50833,1919
13.51667,1911
13.52500,1904
13.53333,1897
13.54167,1891
13.55000,1884
13.55833,1873
13.56667,1864
13.57500,1855
13.58333,1846
13.59167,1837
13.60000,1828
13.60833,1819
13.61667,1806
13.62500,1792
13.63333,1780
13.64167,1767
13.65000,1754
13.65833,1741
13.66667,1729
13.67500,1715
13.68333,1701
13.69167,1690
13.70000,1679
13.70833,1667
13.71667,1656
13.72500,1647
13.73333,1635
13.74167,1621
13.75000,1607
13.75833,1595
13.76667,1584
13.77500,1574
13.78333,1563
13.79167,1554
13.80000,1546
13.80833,1536
13.81667,1525
13.82500,1516
13.83333,1505
13.84167,1492
13.85000,1481
13.85833,1469
13.86667,1456
13.87500,1441
13.88333,1431
13.89167,1424
13.90000,1415
13.90833,1403
13.91667,1390
13.92500,1378
13.93333,1366
13.94167,1355
13.95000,1345
13.95833,1334
13.96667,1320
13.97500,1306
13.98333,1290
13.99167,1275
14.00000,1260
14.00833,1250
14.01667,1239
14.02500,1226
14.03333,1210
14.04167,1195
14.05000,1180
14.05833,1164
14.06667,1146
14.07500,1126
14.08333,1108
14.09167,1091
14.10000,1075
14.10833,1058
14.11667,1044
14.12500,1030
14.13333,1011
14.14167,994
14.15000,978
14.15833,961
14.16667,945
14.17500,931
14.18333,917
14.19167,902
14.20000,887
14.20833,873
14.21667,862
14.22500,851
14.23333,841
14.24167,833
14.25000,827
14.25833,823
14.26667,816
14.27500,810
14.28333,804
14.29167,798
14.30000,792
14.30833,786
14.31667,782
14.32500,780
14.33333,781
14.34167,783
14.35000,786
14.35833,787
14.36667,790
14.37500,792
14.38333,795
14.39167,798
14.40000,802
14.40833,806
14.41667,810
14.42500,814
14.43333,819
14.44167,824
14.45000,830
14.45833,833
14.46667,836
14.47500,839
14.48333,842
14.49167,843
14.50000,843
14.50833,843
14.51667,844
14.52500,846
14.53333,846
14.54167,847
14.55000,848
14.55833,850
14.56667,851
14.57500,851
14.58333,846
14.59167,840
14.60000,836
14.60833,830
14.61667,822
14.62500,816
14.63333,809
14.64167,800
14.65000,794
14.65833,788
14.66667,784
14.67500,781
14.68333,780
14.69167,777
14.70000,774
14.70833,770
14.71667,766
14.72500,765
14.73333,768
14.74167,768
14.75000,767
14.75833,769
14.76667,771
14.77500,774
14.78333,777
14.79167,780
14.80000,783
14.80833,787
14.81667,790
14.82500,791
14.83333,792
14.84167,794
14.85000,794
14.85833,796
14.86667,798
14.87500,801
14.88333,804
14.89167,804
14.90000,804
14.90833,806
14.91667,807
14.92500,808
14.93333,806
14.94167,803
14.95000,801
14.95833,798
14.96667,792
14.97500,787
14.98333,786
14.99167,790
15.00000,793

[LC Status Trace(Pump A Pressure)]
Interval(msec),1000
# of Points,901
Start Time(min),0.000
End Time(min),15.000
Intensity Units,kgf/cm2
Intensity Multiplier,1
R.Time (min),Intensity
0.00000,230.1
0.01667,230.1
0.03333,229.5
0.05000,229.5
0.06667,223.3
0.08333,223.3
0.10000,223.3
0.11667,227.2
0.13333,227.2
0.15000,232.9
0.16667,234.3
0.18333,234.3
0.20000,233.3
0.21667,233.6
0.23333,233.7
0.25000,233.3
0.26667,232.3
0.28333,230.3
0.30000,231.0
0.31667,230.7
0.33333,231.1
0.35000,232.0
0.36667,232.0
0.38333,232.0
0.40000,229.3
0.41667,229.3
0.43333,230.1
0.45000,230.1
0.46667,231.6
0.48333,231.3
0.50000,231.3
0.51667,229.8
0.53333,230.1
0.55000,230.4
0.56667,231.2
0.58333,231.3
0.60000,228.5
0.61667,229.4
0.63333,229.5
0.65000,230.2
0.66667,230.6
0.68333,230.6
0.70000,231.2
0.71667,228.4
0.73333,228.4
0.75000,229.9
0.76667,229.9
0.78333,230.7
0.80000,230.7
0.81667,231.1
0.83333,228.2
0.85000,228.2
0.86667,230.3
0.88333,230.1
0.90000,230.4
0.91667,231.0
0.93333,228.8
0.95000,228.9
0.96667,229.9
0.98333,230.2
1.00000,230.1
1.01667,230.1
1.03333,230.7
1.05000,230.7
1.06667,229.0
1.08333,229.0
1.10000,229.0
1.11667,230.1
1.13333,230.2
1.15000,228.5
1.16667,228.5
1.18333,228.9
1.20000,230.2
1.21667,229.8
1.23333,230.1
1.25000,229.0
1.26667,229.0
1.28333,228.5
1.30000,229.3
1.31667,230.3
1.33333,230.6
1.35000,230.1
1.36667,230.1
1.38333,230.1
1.40000,227.8
1.41667,227.8
1.43333,230.2
1.45000,230.3
1.46667,227.7
1.48333,228.1
1.50000,228.8
1.51667,228.8
1.53333,229.7
1.55000,230.2
1.56667,229.4
1.58333,227.8
1.60000,228.6
1.61667,228.6
1.63333,229.0
1.65000,230.1
1.66667,230.2
1.68333,230.2
1.70000,230.2
1.71667,230.2
1.73333,230.2
1.75000,230.2
1.76667,230.4
1.78333,230.4
1.80000,230.4
1.81667,229.7
1.83333,229.9
1.85000,230.3
1.86667,230.7
1.88333,231.6
1.90000,231.3
1.91667,228.9
1.93333,229.9
1.95000,230.8
1.96667,230.6
1.98333,231.1
2.00000,231.5
2.01667,231.5
2.03333,229.4
2.05000,229.4
2.06667,229.4
2.08333,230.8
2.10000,230.4
2.11667,231.2
2.13333,231.2
2.15000,229.3
2.16667,229.9
2.18333,230.6
2.20000,230.3
2.21667,230.7
2.23333,228.6
2.25000,228.9
2.26667,229.7
2.28333,230.1
2.30000,230.2
2.31667,230.3
2.33333,230.3
2.35000,228.5
2.36667,228.5
2.38333,228.5
2.40000,229.8
2.41667,230.3
2.43333,230.2
2.45000,230.2
2.46667,228.8
2.48333,228.5
2.50000,229.9
2.51667,230.3
2.53333,230.1
2.55000,230.3
2.56667,228.4
2.58333,228.6
2.60000,229.1
2.61667,229.8
2.63333,230.4
2.65000,230.4
2.66667,228.2
2.68333,228.2
2.70000,228.2
2.71667,229.1
2.73333,229.8
2.75000,230.7
2.76667,230.7
2.78333,228.2
2.80000,228.2
2.81667,228.5
2.83333,229.5
2.85000,230.4
2.86667,230.6
2.88333,228.6
2.90000,228.9
2.91667,229.0
2.93333,229.0
2.95000,230.2
2.96667,230.4
2.98333,230.4
3.00000,227.7
3.01667,227.7
3.03333,229.4
3.05000,229.1
3.06667,229.1
3.08333,230.4
3.10000,230.4
3.11667,227.7
3.13333,227.7
3.15000,229.7
3.16667,229.5
3.18333,230.4
3.20000,230.6
3.21667,227.8
3.23333,228.8
3.25000,229.5
3.26667,229.7
3.28333,229.9
3.30000,229.9
3.31667,230.6
3.33333,230.6
3.35000,230.6
3.36667,229.7
3.38333,229.7
3.40000,229.7
3.41667,229.7
3.43333,229.7
3.45000,229.7
3.46667,228.9
3.48333,229.9
3.50000,229.8
3.51667,230.4
3.53333,230.3
3.55000,228.2
3.56667,228.6
3.58333,230.1
3.60000,230.2
3.61667,229.9
3.63333,230.3
3.65000,229.7
3.66667,228.8
3.68333,228.6
3.70000,230.1
3.71667,230.3
3.73333,230.1
3.75000,228.2
3.76667,228.4
3.78333,228.5
3.80000,229.3
3.81667,230.3
3.83333,230.4
3.85000,230.2
3.86667,228.4
3.88333,229.0
3.90000,229.0
3.91667,230.1
3.93333,230.4
3.95000,230.2
3.96667,229.9
3.98333,228.4
4.00000,229.0
4.01667,229.0
4.03333,230.1
4.05000,230.6
4.06667,229.7
4.08333,228.0
4.10000,229.1
4.11667,229.0
4.13333,229.4
4.15000,230.4
4.16667,230.6
4.18333,230.2
4.20000,228.4
4.21667,229.0
4.23333,229.3
4.25000,229.8
4.26667,230.6
4.28333,230.6
4.30000,227.8
4.31667,228.4
4.33333,229.1
4.35000,229.7
4.36667,229.7
4.38333,230.4
4.40000,229.8
4.41667,227.8
4.43333,228.9
4.45000,229.8
4.46667,229.8
4.48333,230.2
4.50000,230.6
4.51667,228.0
4.53333,228.6
4.55000,229.4
4.56667,230.1
4.58333,229.9
4.60000,230.4
4.61667,230.7
4.63333,228.2
4.65000,228.8
4.66667,229.4
4.68333,230.1
4.70000,230.1
4.71667,230.4
4.73333,228.2
4.75000,228.5
4.76667,228.8
4.78333,229.8
4.80000,229.9
4.81667,230.3
4.83333,230.7
4.85000,228.4
4.86667,228.6
4.88333,229.5
4.90000,230.2
4.91667,229.9
4.93333,230.2
4.95000,228.4
4.96667,228.4
4.98333,228.5
5.00000,229.8
5.01667,230.3
5.03333,229.9
5.05000,230.1
5.06667,228.5
5.08333,229.0
5.10000,229.3
5.11667,229.9
5.13333,230.6
5.15000,230.2
5.16667,229.9
5.18333,228.9
5.20000,228.8
5.21667,229.1
5.23333,230.3
5.25000,230.6
5.26667,230.6
5.28333,228.2
5.30000,229.1
5.31667,228.6
5.33333,229.0
5.35000,230.6
5.36667,230.7
5.38333,228.2
5.40000,228.2
5.41667,229.5
5.43333,229.3
5.45000,230.2
5.46667,230.6
5.48333,230.2
5.50000,228.2
5.51667,229.1
5.53333,229.7
5.55000,229.7
5.56667,230.6
5.58333,230.7
5.60000,230.7
5.61667,228.0
5.63333,228.0
5.65000,229.8
5.66667,229.8
5.68333,230.4
5.70000,230.8
5.71667,230.8
5.73333,228.6
5.75000,229.7
5.76667,229.9
5.78333,229.9
5.80000,230.7
5.81667,230.8
5.83333,228.0
5.85000,229.1
5.86667,229.8
5.88333,229.8
5.90000,230.3
5.91667,230.6
5.93333,228.4
5.95000,228.5
5.96667,229.1
5.98333,230.1
6.00000,230.2
6.01667,230.2
6.03333,230.2
6.05000,228.4
6.06667,228.4
6.08333,229.7
6.10000,230.4
6.11667,230.1
6.13333,230.4
6.15000,228.4
6.16667,229.0
6.18333,229.0
6.20000,230.3
6.21667,230.4
6.23333,230.2
6.25000,228.1
6.26667,228.5
6.28333,228.6
6.30000,229.0
6.31667,230.2
6.33333,230.7
6.35000,230.4
6.36667,228.2
6.38333,229.3
6.40000,229.1
6.41667,229.5
6.43333,230.6
6.45000,230.2
6.46667,230.1
6.48333,228.5
6.50000,229.3
6.51667,229.3
6.53333,230.3
6.55000,230.7
6.56667,230.2
6.58333,228.1
6.60000,229.1
6.61667,229.3
6.63333,229.5
6.65000,230.2
6.66667,230.8
6.68333,230.3
6.70000,228.6
6.71667,229.3
6.73333,229.4
6.75000,230.1
6.76667,230.7
6.78333,231.0
6.80000,228.0
6.81667,228.5
6.83333,229.4
6.85000,229.7
6.86667,229.9
6.88333,230.8
6.90000,229.8
6.91667,227.8
6.93333,228.9
6.95000,229.8
6.96667,229.5
6.98333,230.3
7.00000,230.7
7.01667,228.8
7.03333,228.6
7.05000,229.5
7.06667,229.8
7.08333,229.9
7.10000,230.7
7.11667,230.8
7.13333,228.1
7.15000,228.9
7.16667,229.5
7.18333,230.3
7.20000,230.1
7.21667,230.6
7.23333,228.5
7.25000,228.6
7.26667,228.9
7.28333,229.9
7.30000,230.1
7.31667,230.2
7.33333,230.7
7.35000,228.5
7.36667,228.8
7.38333,229.5
7.40000,230.4
7.41667,230.2
7.43333,230.3
7.45000,228.5
7.46667,228.8
7.48333,228.9
7.50000,230.1
7.51667,230.6
7.53333,230.2
7.55000,230.4
7.56667,228.5
7.58333,229.3
7.60000,229.5
7.61667,230.1
7.63333,230.7
7.65000,230.3
7.66667,229.8
7.68333,229.0
7.70000,229.0
7.71667,229.9
7.73333,230.6
7.75000,230.8
7.76667,228.8
7.78333,228.5
7.80000,229.3
7.81667,229.3
7.83333,229.9
7.85000,230.8
7.86667,230.3
7.88333,227.7
7.90000,229.0
7.91667,229.1
7.93333,229.4
7.95000,230.4
7.96667,230.8
7.98333,230.4
8.00000,228.4
8.01667,229.1
8.03333,229.8
8.05000,229.9
8.06667,230.7
8.08333,230.8
8.10000,228.1
8.11667,228.1
8.13333,229.4
8.15000,229.7
8.16667,229.7
8.18333,230.6
8.20000,231.0
8.21667,228.1
8.23333,228.8
8.25000,229.9
8.26667,229.9
8.28333,230.2
8.30000,230.8
8.31667,230.8
8.33333,228.2
8.35000,229.3
8.36667,229.9
8.38333,229.9
8.40000,230.6
8.41667,230.4
8.43333,228.6
8.45000,228.9
8.46667,229.8
8.48333,230.3
8.50000,230.2
8.51667,230.8
8.53333,229.9
8.55000,228.6
8.56667,228.9
8.58333,229.8
8.60000,230.6
8.61667,230.2
8.63333,230.7
8.65000,228.4
8.66667,229.0
8.68333,229.1
8.70000,230.3
8.71667,230.7
8.73333,230.3
8.75000,228.4
8.76667,229.3
8.78333,228.8
8.80000,229.8
8.81667,230.6
8.83333,230.7
8.85000,230.4
8.86667,228.6
8.88333,229.4
8.90000,229.3
8.91667,229.7
8.93333,230.7
8.95000,230.3
8.96667,230.2
8.98333,228.5
9.00000,229.3
9.01667,229.3
9.03333,230.3
9.05000,230.8
9.06667,230.2
9.08333,228.1
9.10000,229.1
9.11667,229.3
9.13333,229.7
9.15000,230.7
9.16667,230.7
9.18333,230.1
9.20000,228.6
9.21667,229.3
9.23333,229.1
9.25000,230.2
9.26667,230.6
9.28333,230.8
9.30000,228.1
9.31667,228.6
9.33333,229.4
9.35000,229.7
9.36667,230.6
9.38333,230.8
9.40000,229.0
9.41667,228.1
9.43333,229.1
9.45000,229.9
9.46667,229.9
9.48333,230.4
9.50000,230.8
9.51667,228.4
9.53333,228.8
9.55000,229.7
9.56667,229.9
9.58333,230.1
9.60000,230.7
9.61667,230.8
9.63333,228.1
9.65000,228.9
9.66667,229.7
9.68333,230.4
9.70000,230.2
9.71667,230.6
9.73333,228.5
9.75000,228.8
9.76667,228.9
9.78333,230.1
9.80000,230.1
9.81667,230.3
9.83333,230.7
9.85000,228.6
9.86667,228.8
9.88333,229.7
9.90000,230.4
9.91667,230.7
9.93333,230.4
9.95000,228.5
9.96667,228.8
9.98333,229.0
10.00000,230.2
10.01667,230.6
10.03333,230.2
10.05000,230.3
10.06667,228.5
10.08333,229.3
10.10000,229.4
10.11667,230.1
10.13333,230.8
10.15000,230.3
10.16667,229.4
10.18333,229.0
10.20000,229.0
10.21667,229.3
10.23333,230.4
10.25000,230.7
10.26667,230.3
10.28333,228.5
10.30000,229.1
10.31667,228.8
10.33333,229.9
10.35000,231.0
10.36667,230.8
10.38333,228.1
10.40000,229.1
10.41667,229.3
10.43333,229.4
10.45000,230.4
10.46667,230.8
10.48333,229.7
10.50000,228.1
10.51667,229.1
10.53333,229.8
10.55000,229.8
10.56667,230.3
10.58333,230.8
10.60000,228.0
10.61667,228.2
10.63333,229.3
10.65000,229.5
10.66667,229.8
10.68333,230.6
10.70000,230.7
10.71667,228.1
10.73333,228.9
10.75000,229.8
10.76667,230.1
10.78333,230.1
10.80000,230.8
10.81667,230.6
10.83333,228.2
10.85000,229.1
10.86667,229.8
10.88333,229.9
10.90000,230.4
10.91667,230.8
10.93333,228.5
10.95000,228.8
10.96667,229.1
10.98333,230.3
11.00000,230.1
11.01667,230.3
11.03333,229.0
11.05000,228.6
11.06667,228.8
11.08333,229.7
11.10000,230.4
11.11667,230.2
11.13333,230.6
11.15000,228.6
11.16667,229.1
11.18333,229.1
11.20000,230.2
11.21667,230.6
11.23333,230.2
11.25000,228.4
11.26667,228.5
11.28333,228.8
11.30000,229.7
11.31667,230.6
11.33333,230.7
11.35000,230.2
11.36667,228.6
11.38333,229.4
11.40000,229.4
11.41667,230.4
11.43333,230.6
11.45000,230.3
11.46667,230.3
11.48333,228.5
11.50000,229.4
11.51667,229.3
11.53333,230.2
11.55000,230.7
11.56667,230.4
11.58333,228.2
11.60000,229.3
11.61667,229.3
11.63333,229.7
11.65000,230.6
11.66667,230.8
11.68333,229.8
11.70000,228.6
11.71667,229.4
11.73333,229.1
11.75000,230.1
11.76667,230.8
11.78333,231.0
11.80000,228.1
11.81667,228.9
11.83333,229.5
11.85000,229.9
11.86667,230.6
11.88333,230.8
11.90000,228.0
11.91667,228.0
11.93333,229.3
11.95000,230.1
11.96667,229.7
11.98333,230.4
12.00000,230.8
12.01667,228.6
12.03333,228.8
12.05000,229.8
12.06667,230.1
12.08333,230.1
12.10000,230.7
12.11667,230.8
12.13333,228.1
12.15000,228.9
12.16667,229.7
12.18333,230.3
12.20000,230.2
12.21667,230.7
12.23333,228.4
12.25000,228.6
12.26667,229.7
12.28333,230.1
12.30000,230.1
12.31667,230.3
12.33333,230.7
12.35000,228.6
12.36667,228.9
12.38333,229.7
12.40000,230.6
12.41667,230.2
12.43333,230.3
12.45000,228.6
12.46667,228.9
12.48333,229.0
12.50000,230.3
12.51667,230.6
12.53333,230.1
12.55000,229.9
12.56667,228.5
12.58333,229.3
12.60000,229.5
12.61667,230.7
12.63333,230.8
12.65000,230.3
12.66667,228.9
12.68333,229.3
12.70000,229.1
12.71667,230.2
12.73333,230.6
12.75000,230.8
12.76667,228.0
12.78333,228.4
12.80000,229.4
12.81667,229.3
12.83333,230.2
12.85000,230.8
12.86667,231.0
12.88333,228.0
12.90000,229.4
12.91667,229.4
12.93333,229.5
12.95000,230.6
12.96667,230.8
12.98333,230.2
13.00000,228.2
13.01667,229.4
13.03333,229.9
13.05000,229.9
13.06667,230.4
13.08333,230.8
13.10000,228.1
13.11667,228.4
13.13333,229.1
13.15000,229.9
13.16667,229.9
13.18333,230.8
13.20000,230.8
13.21667,228.2
13.23333,229.0
13.25000,230.1
13.26667,230.3
13.28333,230.3
13.30000,231.0
13.31667,230.6
13.33333,228.5
13.35000,229.4
13.36667,230.1
13.38333,230.1
13.40000,230.6
13.41667,231.0
13.43333,228.6
13.45000,228.9
13.46667,229.4
13.48333,230.3
13.50000,230.3
13.51667,230.6
13.53333,228.9
13.55000,228.6
13.56667,228.9
13.58333,229.9
13.60000,230.6
13.61667,230.3
13.63333,230.8
13.65000,228.8
13.66667,229.3
13.68333,229.1
13.70000,230.4
13.71667,230.7
13.73333,230.6
13.75000,228.6
13.76667,228.8
13.78333,228.9
13.80000,229.9
13.81667,230.6
13.83333,230.8
13.85000,230.6
13.86667,228.4
13.88333,229.4
13.90000,229.4
13.91667,229.8
13.93333,230.8
13.95000,230.3
13.96667,230.4
13.98333,228.8
14.00000,229.4
14.01667,229.3
14.03333,230.3
14.05000,230.8
14.06667,230.2
14.08333,230.2
14.10000,229.3
14.11667,229.4
14.13333,229.9
14.15000,230.7
14.16667,230.8
14.18333,229.7
14.20000,228.2
14.21667,229.3
14.23333,229.4
14.25000,230.2
14.26667,230.7
14.28333,231.0
14.30000,228.1
14.31667,228.9
14.33333,229.7
14.35000,229.9
14.36667,230.3
14.38333,230.8
14.40000,228.0
14.41667,228.0
14.43333,229.1
14.45000,230.1
14.46667,229.8
14.48333,230.4
14.50000,230.8
14.51667,228.5
14.53333,228.8
14.55000,229.1
14.56667,230.1
14.58333,230.1
14.60000,230.7
14.61667,230.8
14.63333,228.1
14.65000,229.0
14.66667,229.8
14.68333,230.6
14.70000,230.3
14.71667,230.7
14.73333,228.6
14.75000,228.9
14.76667,229.0
14.78333,230.2
14.80000,230.2
14.81667,230.2
14.83333,230.7
14.85000,228.8
14.86667,228.8
14.88333,229.7
14.90000,230.6
14.91667,230.7
14.93333,230.3
14.95000,228.5
14.96667,228.9
14.98333,228.9
15.00000,229.4

[LC Status Trace(Pump B Pressure)]
Interval(msec),1000
# of Points,901
Start Time(min),0.000
End Time(min),15.000
Intensity Units,kgf/cm2
Intensity Multiplier,1
R.Time (min),Intensity
0.00000,246.7
0.01667,246.7
0.03333,246.2
0.05000,239.4
0.06667,239.0
0.08333,240.1
0.10000,242.9
0.11667,242.9
0.13333,246.0
0.15000,248.9
0.16667,250.3
0.18333,250.8
0.20000,251.1
0.21667,250.3
0.23333,250.5
0.25000,250.6
0.26667,249.4
0.28333,248.5
0.30000,247.7
0.31667,247.6
0.33333,247.6
0.35000,248.9
0.36667,248.9
0.38333,246.9
0.40000,246.2
0.41667,246.9
0.43333,246.8
0.45000,248.1
0.46667,248.3
0.48333,247.9
0.50000,245.6
0.51667,246.4
0.53333,247.2
0.55000,247.1
0.56667,248.0
0.58333,248.3
0.60000,248.1
0.61667,245.4
0.63333,246.3
0.65000,247.2
0.66667,246.9
0.68333,247.9
0.70000,248.1
0.71667,245.3
0.73333,246.0
0.75000,246.3
0.76667,247.2
0.78333,247.3
0.80000,247.6
0.81667,247.9
0.83333,245.4
0.85000,245.9
0.86667,246.8
0.88333,246.7
0.90000,247.3
0.91667,247.9
0.93333,245.4
0.95000,245.8
0.96667,245.9
0.98333,247.2
1.00000,246.9
1.01667,247.1
1.03333,246.6
1.05000,245.3
1.06667,245.5
1.08333,245.8
1.10000,247.2
1.11667,247.2
1.13333,247.1
1.15000,245.6
1.16667,245.3
1.18333,245.6
1.20000,246.7
1.21667,246.9
1.23333,246.8
1.25000,247.2
1.26667,245.1
1.28333,245.9
1.30000,246.3
1.31667,246.8
1.33333,247.1
1.35000,246.7
1.36667,244.9
1.38333,245.8
1.40000,245.5
1.41667,246.2
1.43333,246.9
1.45000,246.7
1.46667,246.7
1.48333,244.7
1.50000,245.3
1.51667,245.3
1.53333,246.4
1.55000,246.8
1.56667,246.2
1.58333,244.2
1.60000,244.5
1.61667,245.4
1.63333,245.9
1.65000,246.4
1.66667,247.1
1.68333,245.9
1.70000,244.9
1.71667,245.6
1.73333,246.0
1.75000,246.4
1.76667,247.3
1.78333,248.0
1.80000,246.0
1.81667,245.8
1.83333,246.7
1.85000,247.3
1.86667,247.7
1.88333,248.5
1.90000,245.5
1.91667,245.9
1.93333,246.9
1.95000,247.6
1.96667,247.5
1.98333,248.1
2.00000,248.6
2.01667,245.9
2.03333,246.2
2.05000,246.7
2.06667,247.3
2.08333,247.2
2.10000,248.1
2.11667,248.1
2.13333,245.9
2.15000,245.8
2.16667,246.2
2.18333,247.5
2.20000,247.1
2.21667,247.2
2.23333,247.7
2.25000,244.9
2.26667,245.8
2.28333,246.6
2.30000,246.9
2.31667,246.9
2.33333,247.3
2.35000,245.3
2.36667,245.4
2.38333,246.2
2.40000,247.2
2.41667,246.9
2.43333,247.2
2.45000,245.3
2.46667,245.4
2.48333,245.5
2.50000,246.7
2.51667,247.3
2.53333,247.3
2.55000,246.9
2.56667,245.1
2.58333,245.6
2.60000,245.4
2.61667,246.6
2.63333,247.3
2.65000,246.9
2.66667,246.4
2.68333,245.8
2.70000,245.5
2.71667,245.9
2.73333,247.3
2.75000,247.3
2.76667,246.9
2.78333,245.0
2.80000,245.8
2.81667,245.6
2.83333,246.4
2.85000,247.2
2.86667,247.5
2.88333,245.0
2.90000,245.6
2.91667,245.8
2.93333,245.9
2.95000,247.1
2.96667,247.2
2.98333,247.1
3.00000,244.9
3.01667,245.8
3.03333,245.8
3.05000,245.9
3.06667,246.9
3.08333,247.2
3.10000,244.5
3.11667,244.5
3.13333,245.5
3.15000,246.4
3.16667,246.2
3.18333,247.2
3.20000,247.5
3.21667,244.7
3.23333,245.5
3.25000,245.6
3.26667,246.7
3.28333,246.4
3.30000,247.5
3.31667,247.2
3.33333,244.7
3.35000,245.4
3.36667,246.4
3.38333,246.7
3.40000,247.1
3.41667,247.5
3.43333,244.9
3.45000,245.3
3.46667,245.6
3.48333,246.8
3.50000,246.8
3.51667,246.9
3.53333,245.4
3.55000,245.3
3.56667,245.1
3.58333,246.4
3.60000,246.8
3.61667,246.7
3.63333,247.2
3.65000,245.3
3.66667,245.4
3.68333,245.5
3.70000,246.9
3.71667,247.2
3.73333,246.9
3.75000,247.1
3.76667,245.0
3.78333,245.1
3.80000,245.5
3.81667,246.8
3.83333,246.8
3.85000,246.8
3.86667,245.0
3.88333,245.9
3.90000,245.6
3.91667,246.3
3.93333,247.2
3.95000,246.9
3.96667,246.9
3.98333,245.1
4.00000,245.6
4.01667,245.8
4.03333,246.3
4.05000,247.3
4.06667,246.9
4.08333,246.9
4.10000,246.0
4.11667,246.0
4.13333,245.9
4.15000,246.9
4.16667,247.3
4.18333,246.3
4.20000,244.7
4.21667,245.9
4.23333,245.9
4.25000,246.4
4.26667,247.5
4.28333,247.5
4.30000,244.6
4.31667,245.3
4.33333,245.9
4.35000,246.4
4.36667,246.7
4.38333,247.6
4.40000,244.5
4.41667,244.7
4.43333,245.9
4.45000,246.4
4.46667,246.4
4.48333,247.3
4.50000,247.5
4.51667,245.3
4.53333,245.3
4.55000,245.9
4.56667,246.6
4.58333,246.6
4.60000,246.9
4.61667,247.5
4.63333,244.6
4.65000,245.3
4.66667,246.3
4.68333,246.9
4.70000,246.9
4.71667,247.3
4.73333,245.1
4.75000,244.7
4.76667,245.6
4.78333,246.6
4.80000,247.2
4.81667,246.9
4.83333,247.5
4.85000,245.4
4.86667,245.3
4.88333,246.3
4.90000,247.2
4.91667,246.9
4.93333,246.9
4.95000,245.3
4.96667,245.4
4.98333,245.5
5.00000,246.2
5.01667,246.6
5.03333,247.5
5.05000,246.9
5.06667,245.1
5.08333,245.8
5.10000,246.2
5.11667,246.2
5.13333,247.2
5.15000,246.9
5.16667,247.1
5.18333,245.9
5.20000,245.9
5.21667,246.0
5.23333,246.6
5.25000,247.5
5.26667,246.9
5.28333,245.3
5.30000,245.9
5.31667,245.9
5.33333,246.2
5.35000,247.5
5.36667,247.6
5.38333,244.9
5.40000,245.9
5.41667,246.0
5.43333,246.2
5.45000,247.2
5.46667,247.5
5.48333,247.1
5.50000,244.9
5.51667,245.9
5.53333,246.6
5.55000,246.2
5.56667,247.2
5.58333,247.6
5.60000,247.2
5.61667,244.9
5.63333,245.9
5.65000,246.6
5.66667,246.7
5.68333,247.3
5.70000,247.2
5.71667,244.6
5.73333,245.6
5.75000,245.9
5.76667,246.9
5.78333,246.9
5.80000,247.3
5.81667,246.7
5.83333,245.3
5.85000,245.9
5.86667,246.6
5.88333,246.7
5.90000,247.2
5.91667,247.6
5.93333,245.3
5.95000,245.5
5.96667,245.9
5.98333,247.1
6.00000,247.1
6.01667,247.1
6.03333,247.5
6.05000,245.3
6.06667,245.3
6.08333,245.6
6.10000,247.3
6.11667,246.8
6.13333,247.1
6.15000,245.3
6.16667,245.3
6.18333,245.8
6.20000,246.7
6.21667,247.5
6.23333,246.9
6.25000,247.5
6.26667,245.3
6.28333,246.2
6.30000,246.7
6.31667,247.2
6.33333,246.7
6.35000,247.2
6.36667,245.4
6.38333,246.0
6.40000,245.9
6.41667,246.7
6.43333,247.5
6.45000,247.1
6.46667,246.9
6.48333,245.3
6.50000,245.5
6.51667,246.0
6.53333,247.2
6.55000,247.5
6.56667,247.2
6.58333,245.0
6.60000,245.4
6.61667,246.0
6.63333,246.7
6.65000,247.5
6.66667,247.7
6.68333,245.9
6.70000,245.5
6.71667,246.2
6.73333,246.0
6.75000,246.7
6.76667,247.5
6.78333,247.7
6.80000,244.7
6.81667,245.5
6.83333,246.3
6.85000,246.4
6.86667,246.9
6.88333,247.6
6.90000,244.7
6.91667,244.9
6.93333,245.9
6.95000,246.7
6.96667,246.7
6.98333,247.1
7.00000,247.6
7.01667,247.6
7.03333,244.7
7.05000,245.9
7.06667,246.7
7.08333,246.8
7.10000,247.6
7.11667,247.6
7.13333,245.3
7.15000,245.4
7.16667,246.4
7.18333,247.3
7.20000,246.8
7.21667,247.5
7.23333,245.3
7.25000,245.1
7.26667,245.6
7.28333,246.4
7.30000,246.9
7.31667,246.9
7.33333,247.5
7.35000,245.5
7.36667,245.5
7.38333,246.6
7.40000,247.3
7.41667,246.8
7.43333,247.2
7.45000,245.5
7.46667,245.9
7.48333,245.6
7.50000,246.8
7.51667,247.6
7.53333,246.9
7.55000,247.2
7.56667,245.4
7.58333,245.8
7.60000,245.6
7.61667,246.9
7.63333,247.7
7.65000,246.8
7.66667,245.9
7.68333,246.0
7.70000,245.9
7.71667,246.3
7.73333,247.5
7.75000,247.6
7.76667,247.1
7.78333,245.3
7.80000,246.0
7.81667,246.0
7.83333,246.8
7.85000,247.6
7.86667,247.7
7.88333,244.9
7.90000,245.9
7.91667,246.0
7.93333,246.2
7.95000,246.8
7.96667,247.3
7.98333,247.1
8.00000,245.1
8.01667,245.1
8.03333,246.7
8.05000,246.3
8.06667,247.3
8.08333,247.6
8.10000,244.7
8.11667,244.7
8.13333,245.9
8.15000,246.7
8.16667,246.7
8.18333,247.5
8.20000,247.6
8.21667,244.9
8.23333,245.3
8.25000,246.2
8.26667,247.1
8.28333,247.2
8.30000,247.7
8.31667,246.9
8.33333,245.5
8.35000,246.2
8.36667,246.7
8.38333,246.8
8.40000,247.5
8.41667,247.6
8.43333,245.4
8.45000,245.6
8.46667,246.0
8.48333,247.2
8.50000,247.2
8.51667,247.2
8.53333,245.6
8.55000,245.4
8.56667,245.5
8.58333,246.8
8.60000,247.2
8.61667,247.1
8.63333,247.5
8.65000,245.4
8.66667,245.6
8.68333,246.0
8.70000,247.2
8.71667,247.5
8.73333,247.2
8.75000,247.2
8.76667,245.4
8.78333,245.6
8.80000,246.7
8.81667,247.3
8.83333,247.2
8.85000,247.2
8.86667,245.3
8.88333,246.2
8.90000,246.2
8.91667,246.6
8.93333,247.5
8.95000,247.7
8.96667,247.2
8.98333,245.4
9.00000,246.2
9.01667,245.9
9.03333,246.6
9.05000,247.6
9.06667,247.6
9.08333,246.8
9.10000,246.0
9.11667,246.0
9.13333,246.3
9.15000,247.5
9.16667,247.7
9.18333,247.5
9.20000,244.9
9.21667,246.2
9.23333,246.4
9.25000,246.7
9.26667,247.5
9.28333,247.7
9.30000,244.9
9.31667,245.5
9.33333,246.6
9.35000,246.6
9.36667,247.2
9.38333,247.7
9.40000,245.9
9.41667,245.0
9.43333,245.6
9.45000,246.6
9.46667,246.7
9.48333,247.2
9.50000,247.7
9.51667,245.5
9.53333,245.4
9.55000,246.0
9.56667,246.8
9.58333,247.2
9.60000,247.2
9.61667,247.7
9.63333,244.9
9.65000,245.5
9.66667,246.7
9.68333,247.2
9.70000,247.1
9.71667,247.6
9.73333,245.4
9.75000,245.0
9.76667,245.8
9.78333,246.9
9.80000,246.9
9.81667,247.2
9.83333,247.3
9.85000,245.5
9.86667,245.5
9.88333,246.6
9.90000,247.6
9.91667,247.6
9.93333,246.9
9.95000,245.4
9.96667,245.4
9.98333,245.8
10.00000,246.6
10.01667,247.1
10.03333,247.5
10.05000,247.2
10.06667,246.0
10.08333,245.9
10.10000,246.2
10.11667,246.8
10.13333,247.3
10.15000,246.9
10.16667,245.0
10.18333,245.1
10.20000,245.9
10.21667,246.3
10.23333,246.9
10.25000,247.5
10.26667,247.1
10.28333,245.3
10.30000,246.0
10.31667,246.2
10.33333,246.8
10.35000,247.7
10.36667,247.7
10.38333,245.0
10.40000,245.1
10.41667,246.0
10.43333,246.4
10.45000,246.8
10.46667,247.6
10.48333,247.1
10.50000,244.9
10.51667,246.0
10.53333,246.7
10.55000,246.4
10.56667,247.3
10.58333,247.6
10.60000,246.6
10.61667,244.9
10.63333,246.2
10.65000,246.7
10.66667,246.7
10.68333,247.6
10.70000,247.6
10.71667,244.9
10.73333,245.8
10.75000,246.8
10.76667,246.6
10.78333,247.1
10.80000,247.6
10.81667,245.8
10.83333,245.0
10.85000,246.0
10.86667,246.7
10.88333,247.1
10.90000,247.5
10.91667,247.7
10.93333,245.5
10.95000,245.3
10.96667,245.6
10.98333,247.2
11.00000,246.8
11.01667,247.1
11.03333,247.5
11.05000,245.3
11.06667,245.5
11.08333,246.0
11.10000,247.2
11.11667,246.9
11.13333,247.2
11.15000,245.3
11.16667,245.6
11.18333,245.5
11.20000,246.7
11.21667,247.5
11.23333,247.1
11.25000,245.4
11.26667,245.4
11.28333,245.5
11.30000,246.8
11.31667,247.3
11.33333,247.2
11.35000,247.2
11.36667,245.4
11.38333,246.2
11.40000,245.6
11.41667,246.9
11.43333,247.5
11.45000,247.2
11.46667,246.9
11.48333,245.5
11.50000,245.1
11.51667,246.0
11.53333,247.3
11.55000,247.6
11.56667,247.3
11.58333,245.1
11.60000,245.6
11.61667,246.3
11.63333,246.7
11.65000,247.2
11.66667,247.7
11.68333,246.0
11.70000,245.0
11.71667,246.0
11.73333,246.2
11.75000,246.7
11.76667,247.5
11.78333,247.9
11.80000,245.0
11.81667,245.8
11.83333,246.6
11.85000,246.7
11.86667,247.2
11.88333,247.5
11.90000,245.0
11.91667,245.0
11.93333,245.8
11.95000,246.6
11.96667,246.9
11.98333,247.1
12.00000,247.7
12.01667,247.9
12.03333,245.5
12.05000,245.9
12.06667,246.7
12.08333,246.9
12.10000,247.2
12.11667,247.7
12.13333,247.7
12.15000,245.4
12.16667,246.6
12.18333,246.8
12.20000,247.2
12.21667,247.6
12.23333,245.4
12.25000,245.6
12.26667,245.8
12.28333,247.1
12.30000,247.1
12.31667,247.1
12.33333,247.1
12.35000,245.9
12.36667,245.9
12.38333,245.6
12.40000,247.2
12.41667,247.2
12.43333,247.2
12.45000,247.2
12.46667,246.0
12.48333,246.0
12.50000,246.3
12.51667,247.6
12.53333,247.1
12.55000,247.2
12.56667,245.3
12.58333,245.3
12.60000,245.6
12.61667,246.9
12.63333,247.9
12.65000,247.2
12.66667,245.3
12.68333,245.3
12.70000,246.2
12.71667,245.8
12.73333,247.6
12.75000,247.6
12.76667,247.6
12.78333,245.3
12.80000,245.3
12.81667,245.3
12.83333,246.9
12.85000,246.9
12.86667,247.7
12.88333,247.3
12.90000,246.2
12.91667,246.2
12.93333,246.4
12.95000,246.9
12.96667,247.6
12.98333,247.7
13.00000,244.7
13.01667,245.0
13.03333,246.2
13.05000,246.7
13.06667,246.7
13.08333,247.6
13.10000,247.2
13.11667,244.9
13.13333,244.9
13.15000,246.8
13.16667,246.6
13.18333,247.7
13.20000,246.9
13.21667,244.9
13.23333,245.9
13.25000,246.6
13.26667,247.2
13.28333,247.2
13.30000,247.9
13.31667,245.9
13.33333,245.3
13.35000,245.9
13.36667,246.7
13.38333,247.3
13.40000,247.2
13.41667,247.9
13.43333,245.4
13.45000,245.4
13.46667,246.2
13.48333,246.6
13.50000,247.2
13.51667,247.2
13.53333,245.4
13.55000,245.5
13.56667,245.5
13.58333,246.7
13.60000,247.5
13.61667,247.2
13.63333,247.6
13.65000,245.4
13.66667,245.8
13.68333,245.8
13.70000,246.7
13.71667,247.2
13.73333,247.2
13.75000,245.5
13.76667,245.5
13.78333,245.8
13.80000,246.2
13.81667,246.2
13.83333,247.6
13.85000,247.2
13.86667,247.2
13.88333,245.5
13.90000,245.8
13.91667,246.2
13.93333,247.5
13.95000,247.2
13.96667,247.2
13.98333,245.1
14.00000,246.2
14.01667,246.2
14.03333,246.4
14.05000,247.3
14.06667,247.6
14.08333,246.3
14.10000,246.3
14.11667,246.4
14.13333,246.4
14.15000,247.3
14.16667,247.9
14.18333,246.0
14.20000,245.9
14.21667,246.0
14.23333,246.3
14.25000,247.2
14.26667,247.6
14.28333,247.9
14.30000,245.0
14.31667,245.8
14.33333,246.7
14.35000,246.7
14.36667,246.7
14.38333,247.7
14.40000,247.7
14.41667,245.0
14.43333,246.0
14.45000,246.0
14.46667,246.7
14.48333,246.7
14.50000,247.7
14.51667,247.7
14.53333,245.0
14.55000,245.9
14.56667,246.8
14.58333,247.1
14.60000,247.2
14.61667,247.7
14.63333,245.3
14.65000,245.5
14.66667,246.6
14.68333,246.6
14.70000,246.6
14.71667,247.1
14.73333,247.1
14.75000,245.6
14.76667,245.6
14.78333,247.1
14.80000,247.1
14.81667,246.9
14.83333,247.5
14.85000,245.3
14.86667,245.9
14.88333,245.6
14.90000,246.9
14.91667,247.1
14.93333,246.9
14.95000,245.9
14.96667,245.3
14.98333,245.4
15.00000,246.6

[LC Status Trace(Sample Cooler Temp.)]
Interval(msec),1000
# of Points,901
Start Time(min),0.000
End Time(min),15.000
Intensity Units,C
Intensity Multiplier,1
R.Time (min),Intensity
0.00000,18.44
0.01667,18.44
0.03333,18.44
0.05000,18.44
0.06667,18.44
0.08333,18.44
0.10000,18.41
0.11667,18.41
0.13333,18.41
0.15000,18.41
0.16667,18.41
0.18333,18.41
0.20000,18.41
0.21667,18.41
0.23333,18.42
0.25000,18.42
0.26667,18.42
0.28333,18.42
0.30000,18.42
0.31667,18.42
0.33333,18.42
0.35000,18.42
0.36667,18.42
0.38333,18.42
0.40000,18.40
0.41667,18.40
0.43333,18.40
0.45000,18.40
0.46667,18.40
0.48333,18.40
0.50000,18.40
0.51667,18.40
0.53333,18.40
0.55000,18.40
0.56667,18.41
0.58333,18.41
0.60000,18.41
0.61667,18.41
0.63333,18.41
0.65000,18.41
0.66667,18.41
0.68333,18.41
0.70000,18.41
0.71667,18.41
0.73333,18.40
0.75000,18.40
0.76667,18.40
0.78333,18.40
0.80000,18.40
0.81667,18.40
0.83333,18.40
0.85000,18.40
0.86667,18.40
0.88333,18.40
0.90000,18.42
0.91667,18.42
0.93333,18.42
0.95000,18.42
0.96667,18.42
0.98333,18.42
1.00000,18.42
1.01667,18.42
1.03333,18.42
1.05000,18.42
1.06667,18.39
1.08333,18.39
1.10000,18.39
1.11667,18.39
1.13333,18.39
1.15000,18.39
1.16667,18.39
1.18333,18.39
1.20000,18.39
1.21667,18.39
1.23333,18.40
1.25000,18.40
1.26667,18.40
1.28333,18.40
1.30000,18.40
1.31667,18.40
1.33333,18.40
1.35000,18.40
1.36667,18.40
1.38333,18.40
1.40000,18.41
1.41667,18.41
1.43333,18.41
1.45000,18.41
1.46667,18.41
1.48333,18.41
1.50000,18.41
1.51667,18.41
1.53333,18.41
1.55000,18.41
1.56667,18.42
1.58333,18.42
1.60000,18.42
1.61667,18.42
1.63333,18.42
1.65000,18.42
1.66667,18.42
1.68333,18.42
1.70000,18.42
1.71667,18.42
1.73333,18.40
1.75000,18.40
1.76667,18.40
1.78333,18.40
1.80000,18.40
1.81667,18.40
1.83333,18.40
1.85000,18.40
1.86667,18.40
1.88333,18.40
1.90000,18.37
1.91667,18.37
1.93333,18.37
1.95000,18.37
1.96667,18.37
1.98333,18.37
2.00000,18.37
2.01667,18.37
2.03333,18.37
2.05000,18.37
2.06667,18.40
2.08333,18.40
2.10000,18.40
2.11667,18.40
2.13333,18.40
2.15000,18.40
2.16667,18.40
2.18333,18.40
2.20000,18.40
2.21667,18.40
2.23333,18.37
2.25000,18.37
2.26667,18.37
2.28333,18.37
2.30000,18.37
2.31667,18.37
2.33333,18.37
2.35000,18.37
2.36667,18.37
2.38333,18.37
2.40000,18.37
2.41667,18.37
2.43333,18.37
2.45000,18.37
2.46667,18.37
2.48333,18.37
2.50000,18.37
2.51667,18.37
2.53333,18.37
2.55000,18.37
2.56667,18.35
2.58333,18.35
2.60000,18.35
2.61667,18.35
2.63333,18.35
2.65000,18.35
2.66667,18.35
2.68333,18.35
2.70000,18.35
2.71667,18.35
2.73333,18.36
2.75000,18.36
2.76667,18.36
2.78333,18.36
2.80000,18.36
2.81667,18.36
2.83333,18.36
2.85000,18.36
2.86667,18.36
2.88333,18.36
2.90000,18.37
2.91667,18.37
2.93333,18.37
2.95000,18.37
2.96667,18.37
2.98333,18.37
3.00000,18.37
3.01667,18.37
3.03333,18.37
3.05000,18.37
3.06667,18.39
3.08333,18.39
3.10000,18.39
3.11667,18.39
3.13333,18.39
3.15000,18.39
3.16667,18.39
3.18333,18.39
3.20000,18.39
3.21667,18.39
3.23333,18.35
3.25000,18.35
3.26667,18.35
3.28333,18.35
3.30000,18.35
3.31667,18.35
3.33333,18.35
3.35000,18.35
3.36667,18.35
3.38333,18.35
3.40000,18.34
3.41667,18.34
3.43333,18.34
3.45000,18.34
3.46667,18.34
3.48333,18.34
3.50000,18.34
3.51667,18.34
3.53333,18.34
3.55000,18.34
3.56667,18.37
3.58333,18.37
3.60000,18.37
3.61667,18.37
3.63333,18.37
3.65000,18.37
3.66667,18.37
3.68333,18.37
3.70000,18.37
3.71667,18.37
3.73333,18.35
3.75000,18.35
3.76667,18.35
3.78333,18.35
3.80000,18.35
3.81667,18.35
3.83333,18.35
3.85000,18.35
3.86667,18.35
3.88333,18.35
3.90000,18.34
3.91667,18.34
3.93333,18.34
3.95000,18.34
3.96667,18.34
3.98333,18.34
4.00000,18.34
4.01667,18.34
4.03333,18.34
4.05000,18.34
4.06667,18.33
4.08333,18.33
4.10000,18.33
4.11667,18.33
4.13333,18.33
4.15000,18.33
4.16667,18.33
4.18333,18.33
4.20000,18.33
4.21667,18.33
4.23333,18.36
4.25000,18.36
4.26667,18.36
4.28333,18.36
4.30000,18.36
4.31667,18.36
4.33333,18.36
4.35000,18.36
4.36667,18.36
4.38333,18.36
4.40000,18.36
4.41667,18.36
4.43333,18.36
4.45000,18.36
4.46667,18.36
4.48333,18.36
4.50000,18.36
4.51667,18.36
4.53333,18.36
4.55000,18.36
4.56667,18.31
4.58333,18.31
4.60000,18.31
4.61667,18.31
4.63333,18.31
4.65000,18.31
4.66667,18.31
4.68333,18.31
4.70000,18.31
4.71667,18.31
4.73333,18.32
4.75000,18.32
4.76667,18.32
4.78333,18.32
4.80000,18.32
4.81667,18.32
4.83333,18.32
4.85000,18.32
4.86667,18.32
4.88333,18.32
4.90000,18.33
4.91667,18.33
4.93333,18.33
4.95000,18.33
4.96667,18.33
4.98333,18.33
5.00000,18.33
5.01667,18.33
5.03333,18.33
5.05000,18.33
5.06667,18.35
5.08333,18.35
5.10000,18.35
5.11667,18.35
5.13333,18.35
5.15000,18.35
5.16667,18.35
5.18333,18.35
5.20000,18.35
5.21667,18.35
5.23333,18.29
5.25000,18.29
5.26667,18.29
5.28333,18.29
5.30000,18.29
5.31667,18.29
5.33333,18.29
5.35000,18.29
5.36667,18.29
5.38333,18.29
5.40000,18.29
5.41667,18.29
5.43333,18.29
5.45000,18.29
5.46667,18.29
5.48333,18.29
5.50000,18.29
5.51667,18.29
5.53333,18.29
5.55000,18.29
5.56667,18.33
5.58333,18.33
5.60000,18.33
5.61667,18.33
5.63333,18.33
5.65000,18.33
5.66667,18.33
5.68333,18.33
5.70000,18.33
5.71667,18.33
5.73333,18.32
5.75000,18.32
5.76667,18.32
5.78333,18.32
5.80000,18.32
5.81667,18.32
5.83333,18.32
5.85000,18.32
5.86667,18.32
5.88333,18.32
5.90000,18.31
5.91667,18.31
5.93333,18.31
5.95000,18.31
5.96667,18.31
5.98333,18.31
6.00000,18.31
6.01667,18.31
6.03333,18.31
6.05000,18.31
6.06667,18.29
6.08333,18.29
6.10000,18.29
6.11667,18.29
6.13333,18.29
6.15000,18.29
6.16667,18.29
6.18333,18.29
6.20000,18.29
6.21667,18.29
6.23333,18.29
6.25000,18.29
6.26667,18.29
6.28333,18.29
6.30000,18.29
6.31667,18.29
6.33333,18.29
6.35000,18.29
6.36667,18.29
6.38333,18.29
6.40000,18.33
6.41667,18.33
6.43333,18.33
6.45000,18.33
6.46667,18.33
6.48333,18.33
6.50000,18.33
6.51667,18.33
6.53333,18.33
6.55000,18.33
6.56667,18.29
6.58333,18.29
6.60000,18.29
6.61667,18.29
6.63333,18.29
6.65000,18.29
6.66667,18.29
6.68333,18.29
6.70000,18.29
6.71667,18.31
6.73333,18.31
6.75000,18.31
6.76667,18.31
6.78333,18.31
6.80000,18.31
6.81667,18.31
6.83333,18.31
6.85000,18.31
6.86667,18.31
6.88333,18.31
6.90000,18.29
6.91667,18.29
6.93333,18.29
6.95000,18.29
6.96667,18.29
6.98333,18.29
7.00000,18.29
7.01667,18.29
7.03333,18.29
7.05000,18.29
7.06667,18.31
7.08333,18.31
7.10000,18.31
7.11667,18.31
7.13333,18.31
7.15000,18.31
7.16667,18.31
7.18333,18.31
7.20000,18.31
7.21667,18.31
7.23333,18.29
7.25000,18.29
7.26667,18.29
7.28333,18.29
7.30000,18.29
7.31667,18.29
7.33333,18.29
7.35000,18.29
7.36667,18.29
7.38333,18.28
7.40000,18.28
7.41667,18.28
7.43333,18.28
7.45000,18.28
7.46667,18.28
7.48333,18.28
7.50000,18.28
7.51667,18.28
7.53333,18.28
7.55000,18.28
7.56667,18.28
7.58333,18.28
7.60000,18.28
7.61667,18.28
7.63333,18.28
7.65000,18.28
7.66667,18.28
7.68333,18.28
7.70000,18.28
7.71667,18.28
7.73333,18.28
7.75000,18.28
7.76667,18.28
7.78333,18.28
7.80000,18.28
7.81667,18.28
7.83333,18.28
7.85000,18.28
7.86667,18.28
7.88333,18.28
7.90000,18.29
7.91667,18.29
7.93333,18.29
7.95000,18.29
7.96667,18.29
7.98333,18.29
8.00000,18.29
8.01667,18.29
8.03333,18.29
8.05000,18.29
8.06667,18.27
8.08333,18.27
8.10000,18.27
8.11667,18.27
8.13333,18.27
8.15000,18.27
8.16667,18.27
8.18333,18.27
8.20000,18.27
8.21667,18.28
8.23333,18.28
8.25000,18.28
8.26667,18.28
8.28333,18.28
8.30000,18.28
8.31667,18.28
8.33333,18.28
8.35000,18.28
8.36667,18.28
8.38333,18.27
8.40000,18.27
8.41667,18.27
8.43333,18.27
8.45000,18.27
8.46667,18.27
8.48333,18.27
8.50000,18.27
8.51667,18.27
8.53333,18.27
8.55000,18.29
8.56667,18.29
8.58333,18.29
8.60000,18.29
8.61667,18.29
8.63333,18.29
8.65000,18.29
8.66667,18.29
8.68333,18.29
8.70000,18.29
8.71667,18.26
8.73333,18.26
8.75000,18.26
8.76667,18.26
8.78333,18.26
8.80000,18.26
8.81667,18.26
8.83333,18.26
8.85000,18.26
8.86667,18.26
8.88333,18.26
8.90000,18.27
8.91667,18.27
8.93333,18.27
8.95000,18.27
8.96667,18.27
8.98333,18.27
9.00000,18.27
9.01667,18.27
9.03333,18.27
9.05000,18.29
9.06667,18.29
9.08333,18.29
9.10000,18.29
9.11667,18.29
9.13333,18.29
9.15000,18.29
9.16667,18.29
9.18333,18.29
9.20000,18.29
9.21667,18.27
9.23333,18.27
9.25000,18.27
9.26667,18.27
9.28333,18.27
9.30000,18.27
9.31667,18.27
9.33333,18.27
9.35000,18.27
9.36667,18.27
9.38333,18.28
9.40000,18.28
9.41667,18.28
9.43333,18.28
9.45000,18.28
9.46667,18.28
9.48333,18.28
9.50000,18.28
9.51667,18.28
9.53333,18.28
9.55000,18.25
9.56667,18.25
9.58333,18.25
9.60000,18.25
9.61667,18.25
9.63333,18.25
9.65000,18.25
9.66667,18.25
9.68333,18.25
9.70000,18.25
9.71667,18.29
9.73333,18.29
9.75000,18.29
9.76667,18.29
9.78333,18.29
9.80000,18.29
9.81667,18.29
9.83333,18.29
9.85000,18.29
9.86667,18.29
9.88333,18.29
9.90000,18.29
9.91667,18.29
9.93333,18.29
9.95000,18.29
9.96667,18.29
9.98333,18.29
10.00000,18.29
10.01667,18.29
10.03333,18.29
10.05000,18.27
10.06667,18.27
10.08333,18.27
10.10000,18.27
10.11667,18.27
10.13333,18.27
10.15000,18.27
10.16667,18.27
10.18333,18.27
10.20000,18.27
10.21667,18.26
10.23333,18.26
10.25000,18.26
10.26667,18.26
10.28333,18.26
10.30000,18.26
10.31667,18.26
10.33333,18.26
10.35000,18.26
10.36667,18.26
10.38333,18.26
10.40000,18.26
10.41667,18.26
10.43333,18.26
10.45000,18.26
10.46667,18.26
10.48333,18.26
10.50000,18.26
10.51667,18.26
10.53333,18.26
10.55000,18.29
10.56667,18.29
10.58333,18.29
10.60000,18.29
10.61667,18.29
10.63333,18.29
10.65000,18.29
10.66667,18.29
10.68333,18.29
10.70000,18.29
10.71667,18.27
10.73333,18.27
10.75000,18.27
10.76667,18.27
10.78333,18.27
10.80000,18.27
10.81667,18.27
10.83333,18.27
10.85000,18.27
10.86667,18.27
10.88333,18.25
10.90000,18.25
10.91667,18.25
10.93333,18.25
10.95000,18.25
10.96667,18.25
10.98333,18.25
11.00000,18.25
11.01667,18.25
11.03333,18.25
11.05000,18.25
11.06667,18.25
11.08333,18.25
11.10000,18.25
11.11667,18.25
11.13333,18.25
11.15000,18.25
11.16667,18.25
11.18333,18.25
11.20000,18.25
11.21667,18.28
11.23333,18.28
11.25000,18.28
11.26667,18.28
11.28333,18.28
11.30000,18.28
11.31667,18.28
11.33333,18.28
11.35000,18.28
11.36667,18.28
11.38333,18.27
11.40000,18.27
11.41667,18.27
11.43333,18.27
11.45000,18.27
11.46667,18.27
11.48333,18.27
11.50000,18.27
11.51667,18.27
11.53333,18.27
11.55000,18.24
11.56667,18.24
11.58333,18.24
11.60000,18.24
11.61667,18.24
11.63333,18.24
11.65000,18.24
11.66667,18.24
11.68333,18.24
11.70000,18.24
11.71667,18.25
11.73333,18.25
11.75000,18.25
11.76667,18.25
11.78333,18.25
11.80000,18.25
11.81667,18.25
11.83333,18.25
11.85000,18.25
11.86667,18.25
11.88333,18.25
11.90000,18.25
11.91667,18.25
11.93333,18.25
11.95000,18.25
11.96667,18.25
11.98333,18.25
12.00000,18.25
12.01667,18.25
12.03333,18.25
12.05000,18.27
12.06667,18.27
12.08333,18.27
12.10000,18.27
12.11667,18.27
12.13333,18.27
12.15000,18.27
12.16667,18.27
12.18333,18.27
12.20000,18.27
12.21667,18.23
12.23333,18.23
12.25000,18.23
12.26667,18.23
12.28333,18.23
12.30000,18.23
12.31667,18.23
12.33333,18.23
12.35000,18.23
12.36667,18.23
12.38333,18.25
12.40000,18.25
12.41667,18.25
12.43333,18.25
12.45000,18.25
12.46667,18.25
12.48333,18.25
12.50000,18.25
12.51667,18.25
12.53333,18.25
12.55000,18.26
12.56667,18.26
12.58333,18.26
12.60000,18.26
12.61667,18.26
12.63333,18.26
12.65000,18.26
12.66667,18.26
12.68333,18.26
12.70000,18.26
12.71667,18.26
12.73333,18.26
12.75000,18.26
12.76667,18.25
12.78333,18.25
12.80000,18.25
12.81667,18.25
12.83333,18.25
12.85000,18.25
12.86667,18.25
12.88333,18.26
12.90000,18.26
12.91667,18.26
12.93333,18.26
12.95000,18.26
12.96667,18.26
12.98333,18.26
13.00000,18.26
13.01667,18.26
13.03333,18.26
13.05000,18.26
13.06667,18.26
13.08333,18.26
13.10000,18.27
13.11667,18.27
13.13333,18.27
13.15000,18.27
13.16667,18.27
13.18333,18.27
13.20000,18.27
13.21667,18.29
13.23333,18.29
13.25000,18.29
13.26667,18.29
13.28333,18.29
13.30000,18.29
13.31667,18.29
13.33333,18.29
13.35000,18.29
13.36667,18.29
13.38333,18.29
13.40000,18.29
13.41667,18.29
13.43333,18.29
13.45000,18.29
13.46667,18.29
13.48333,18.29
13.50000,18.29
13.51667,18.29
13.53333,18.29
13.55000,18.28
13.56667,18.28
13.58333,18.28
13.60000,18.28
13.61667,18.28
13.63333,18.28
13.65000,18.28
13.66667,18.28
13.68333,18.28
13.70000,18.28
13.71667,18.29
13.73333,18.29
13.75000,18.29
13.76667,18.29
13.78333,18.29
13.80000,18.29
13.81667,18.29
13.83333,18.29
13.85000,18.29
13.86667,18.29
13.88333,18.29
13.90000,18.29
13.91667,18.29
13.93333,18.29
13.95000,18.29
13.96667,18.29
13.98333,18.29
14.00000,18.29
14.01667,18.29
14.03333,18.29
14.05000,18.32
14.06667,18.32
14.08333,18.32
14.10000,18.32
14.11667,18.32
14.13333,18.32
14.15000,18.32
14.16667,18.32
14.18333,18.32
14.20000,18.32
14.21667,18.29
14.23333,18.29
14.25000,18.29
14.26667,18.29
14.28333,18.29
14.30000,18.29
14.31667,18.29
14.33333,18.29
14.35000,18.29
14.36667,18.29
14.38333,18.29
14.40000,18.29
14.41667,18.29
14.43333,18.29
14.45000,18.29
14.46667,18.29
14.48333,18.29
14.50000,18.29
14.51667,18.29
14.53333,18.29
14.55000,18.31
14.56667,18.31
14.58333,18.31
14.60000,18.31
14.61667,18.31
14.63333,18.31
14.65000,18.31
14.66667,18.31
14.68333,18.31
14.70000,18.31
14.71667,18.29
14.73333,18.29
14.75000,18.29
14.76667,18.29
14.78333,18.29
14.80000,18.29
14.81667,18.29
14.83333,18.29
14.85000,18.29
14.86667,18.29
14.88333,18.31
14.90000,18.31
14.91667,18.31
14.93333,18.31
14.95000,18.31
14.96667,18.31
14.98333,18.31
15.00000,18.31

[Fraction Collection Report]
# of Fractions,0

