[Header]
Application Name,LCsolution
Version,1.25
Data File Name,C:\LabSolutions\Data\aldolaze\Martina\aldolna adicija\batch_21022012\EtAc\8.lcd
Output Date,12.12.2023.
Output Time,11:19:48

[File Information]
Type,Data File
Generated,22.2.2012. 12:29:51
Generated by,Admin
Modified,22.2.2012. 13:16:33
Modified by,Admin

[Sample Information]
Operator Name,Admin
Acquired,22.2.2012. 12:30:17
Sample Type,0:Unknown
Level,0
Sample Name,8
Sample ID,
ISTD Amount 1,1
ISTD Amount 2,1
ISTD Amount 3,1
ISTD Amount 4,1
ISTD Amount 5,1
ISTD Amount 6,1
ISTD Amount 7,1
ISTD Amount 8,1
ISTD Amount 9,1
ISTD Amount 10,1
ISTD Amount 11,1
ISTD Amount 12,1
ISTD Amount 13,1
ISTD Amount 14,1
ISTD Amount 15,1
ISTD Amount 16,1
ISTD Amount 17,1
ISTD Amount 18,1
ISTD Amount 19,1
ISTD Amount 20,1
ISTD Amount 21,1
ISTD Amount 22,1
ISTD Amount 23,1
ISTD Amount 24,1
ISTD Amount 25,1
ISTD Amount 26,1
ISTD Amount 27,1
ISTD Amount 28,1
ISTD Amount 29,1
ISTD Amount 30,1
ISTD Amount 31,1
ISTD Amount 32,1
Sample Amount,1
Dilution Factor,1
Vial#,1
Injection Volume,20

[Original Files]
Data File,C:\LabSolutions\Data\aldolaze\Martina\aldolna adicija\batch_21022012\EtAc\8.lcd
Method File,C:\LabSolutions\Data\aldolaze\metoda3_2eluenta.lcm
Batch File,C:\LabSolutions\Data\aldolaze\Martina\baždarci\aldol-aldehid-01022012\lista.lcb
Report Format File,C:\LabSolutions\LCsolution\System\Default.lcr
Tuning File,

[File Description]


[Configuration]
# of Detectors,2
Detector ID,Detector A,AD2
Detector Name,Detector A,AD2
# of Channels,1,1

[Peak Table(Detector A-Ch1)]
# of Peaks,13
Peak#,R.Time,I.Time,F.Time,Area,Height,A/H,Conc.,Mark,ID#,Name,k',Plate #,Plate Ht.,Tailing,Resolution,Sep.Factor,Conc. %,Norm Conc.
1,0.187,0.025,0.508,1765,128,13.7560,0.0000,   ,,,0.000,4,37272.505,1.421,0.000,0.000,0.0000,0.0000
2,0.802,0.592,1.058,1688,117,14.4370,0.0000,   ,,,3.302,66,2275.037,1.165,1.606,0.000,0.0000,0.0000
3,3.168,2.892,3.467,88287,3724,23.7070,0.0000,   ,,,15.985,375,399.742,0.000,4.509,4.841,0.0000,0.0000
4,4.014,3.467,4.917,11534760,702517,16.4190,0.0000, V ,1,RT4.014,20.518,1782,84.194,2.012,1.635,1.284,0.0000,0.0000
5,5.240,4.917,6.742,3330520,126705,26.2860,0.0000, V ,,,27.092,1469,102.095,0.000,2.645,1.320,0.0000,0.0000
6,7.119,6.742,7.558,1029154,40661,25.3110,0.0000, V ,,,37.165,2030,73.879,0.000,3.188,1.372,0.0000,0.0000
7,7.985,7.558,8.967,1442312,35393,40.7520,0.0000, V ,2,RT7.985,41.807,964,155.642,0.000,1.043,1.125,0.0000,0.0000
8,9.339,8.967,10.508,452709,11137,40.6490,0.0000, V ,,,49.066,1741,86.143,0.000,1.408,1.174,0.0000,0.0000
9,10.759,10.508,11.208,69599,1970,35.3230,0.0000, V ,,,56.676,341,440.431,0.000,0.880,1.155,0.0000,0.0000
10,11.745,11.208,12.542,230639,4848,47.5750,0.0000, V ,,,61.964,1698,88.334,0.000,0.568,1.093,0.0000,0.0000
11,12.649,12.542,13.008,42545,1598,26.6160,0.0000, V ,,,66.812,54,2758.875,0.000,0.226,1.078,0.0000,0.0000
12,13.067,13.008,14.175,51787,1396,37.1070,0.0000, V ,,,69.050,14,10644.977,0.000,0.040,1.034,0.0000,0.0000
13,14.275,14.175,14.400,1013,86,11.7240,0.0000, V ,,,75.528,255,588.979,0.000,0.138,1.094,0.0000,0.0000

[Peak Table(AD2)]
# of Peaks,0

[Peak Table(PDA-Ch1)]
# of Peaks,0

[Compound Results(Detector A)]
# of IDs,2
ID#,Name,R.Time,Area,Height,Conc.,Curve,3rd,2nd,1st,Constant,Conc. %,Norm Conc.
1,RT4.014,4.014,11534760,702517,0.0000,Linear,0.0,0.0,0.0,0.0,0.0000,0.0000
2,RT7.985,7.985,1442312,35393,0.0000,Linear,0.0,0.0,0.0,0.0,0.0000,0.0000

[Compound Results(AD2)]
# of IDs,0

[Compound Results(PDA)]
# of IDs,0

[Group Results(Detector A)]
# of Groups,0

[Group Results(AD2)]
# of Groups,0

[Group Results(PDA)]
# of Groups,0

[LC Chromatogram(Detector A-Ch1)]
Interval(msec),500
# of Points,1801
Start Time(min),0.000
End Time(min),15.000
Intensity Units,mV
Intensity Multiplier,0.001
Wavelength(nm),215
R.Time (min),Intensity
0.00000,1
0.00833,1
0.01667,6
0.02500,4
0.03333,11
0.04167,18
0.05000,26
0.05833,33
0.06667,41
0.07500,48
0.08333,55
0.09167,63
0.10000,70
0.10833,79
0.11667,86
0.12500,92
0.13333,98
0.14167,101
0.15000,103
0.15833,106
0.16667,109
0.17500,111
0.18333,112
0.19167,113
0.20000,112
0.20833,107
0.21667,103
0.22500,98
0.23333,93
0.24167,87
0.25000,81
0.25833,74
0.26667,69
0.27500,62
0.28333,53
0.29167,46
0.30000,39
0.30833,33
0.31667,29
0.32500,23
0.33333,18
0.34167,15
0.35000,12
0.35833,7
0.36667,2
0.37500,-2
0.38333,-5
0.39167,-9
0.40000,-14
0.40833,-21
0.41667,-28
0.42500,-31
0.43333,-33
0.44167,-36
0.45000,-39
0.45833,-41
0.46667,-41
0.47500,-44
0.48333,-46
0.49167,-48
0.50000,-50
0.50833,-53
0.51667,-53
0.52500,-52
0.53333,-54
0.54167,-57
0.55000,-58
0.55833,-58
0.56667,-59
0.57500,-61
0.58333,-61
0.59167,-62
0.60000,-61
0.60833,-59
0.61667,-55
0.62500,-51
0.63333,-48
0.64167,-41
0.65000,-36
0.65833,-30
0.66667,-22
0.67500,-15
0.68333,-10
0.69167,-5
0.70000,-1
0.70833,1
0.71667,4
0.72500,12
0.73333,18
0.74167,25
0.75000,32
0.75833,37
0.76667,44
0.77500,53
0.78333,60
0.79167,62
0.80000,64
0.80833,65
0.81667,63
0.82500,61
0.83333,57
0.84167,53
0.85000,53
0.85833,52
0.86667,50
0.87500,47
0.88333,43
0.89167,41
0.90000,39
0.90833,33
0.91667,26
0.92500,21
0.93333,16
0.94167,12
0.95000,9
0.95833,4
0.96667,-1
0.97500,-3
0.98333,-4
0.99167,-6
1.00000,-9
1.00833,-12
1.01667,-16
1.02500,-22
1.03333,-27
1.04167,-31
1.05000,-36
1.05833,-40
1.06667,-43
1.07500,-45
1.08333,-44
1.09167,-44
1.10000,-47
1.10833,-50
1.11667,-51
1.12500,-51
1.13333,-53
1.14167,-56
1.15000,-61
1.15833,-66
1.16667,-71
1.17500,-72
1.18333,-67
1.19167,-63
1.20000,-62
1.20833,-61
1.21667,-59
1.22500,-58
1.23333,-56
1.24167,-53
1.25000,-51
1.25833,-51
1.26667,-50
1.27500,-48
1.28333,-46
1.29167,-45
1.30000,-44
1.30833,-40
1.31667,-34
1.32500,-30
1.33333,-25
1.34167,-16
1.35000,-1
1.35833,25
1.36667,62
1.37500,110
1.38333,172
1.39167,245
1.40000,322
1.40833,382
1.41667,387
1.42500,299
1.43333,92
1.44167,-234
1.45000,-626
1.45833,-981
1.46667,-1144
1.47500,-947
1.48333,-278
1.49167,877
1.50000,2411
1.50833,4105
1.51667,5695
1.52500,6971
1.53333,7846
1.54167,8577
1.55000,10218
1.55833,14660
1.56667,23886
1.57500,38300
1.58333,56127
1.59167,74656
1.60000,91732
1.60833,106308
1.61667,118275
1.62500,128263
1.63333,137688
1.64167,148099
1.65000,159879
1.65833,171923
1.66667,182068
1.67500,188200
1.68333,189073
1.69167,184314
1.70000,174258
1.70833,159746
1.71667,141940
1.72500,122127
1.73333,101420
1.74167,80535
1.75000,59649
1.75833,38582
1.76667,17204
1.77500,-4430
1.78333,-26198
1.79167,-47868
1.80000,-69247
1.80833,-91178
1.81667,-115556
1.82500,-142588
1.83333,-170060
1.84167,-195024
1.85000,-215351
1.85833,-230291
1.86667,-240197
1.87500,-245944
1.88333,-248487
1.89167,-248635
1.90000,-247068
1.90833,-244468
1.91667,-241564
1.92500,-238957
1.93333,-236888
1.94167,-235219
1.95000,-233609
1.95833,-231730
1.96667,-229458
1.97500,-226868
1.98333,-224128
1.99167,-221460
2.00000,-219102
2.00833,-217224
2.01667,-215839
2.02500,-214802
2.03333,-213869
2.04167,-212798
2.05000,-211418
2.05833,-209652
2.06667,-207477
2.07500,-204883
2.08333,-201847
2.09167,-198332
2.10000,-194304
2.10833,-189750
2.11667,-184669
2.12500,-179061
2.13333,-172918
2.14167,-166194
2.15000,-158799
2.15833,-150608
2.16667,-141407
2.17500,-130846
2.18333,-118251
2.19167,-101680
2.20000,-76821
2.20833,-38554
2.21667,16033
2.22500,85577
2.23333,162437
2.24167,233538
2.25000,288021
2.25833,323963
2.26667,350303
2.27500,383505
2.28333,436268
2.29167,509928
2.30000,594375
2.30833,670148
2.31667,715246
2.32500,716557
2.33333,675215
2.34167,602016
2.35000,510729
2.35833,413823
2.36667,321101
2.37500,239580
2.38333,173104
2.39167,122340
2.40000,85667
2.40833,60340
2.41667,43404
2.42500,32273
2.43333,24962
2.44167,20079
2.45000,16701
2.45833,14245
2.46667,12362
2.47500,10846
2.48333,9577
2.49167,8490
2.50000,7546
2.50833,6725
2.51667,6016
2.52500,5413
2.53333,4910
2.54167,4504
2.55000,4184
2.55833,3942
2.56667,3770
2.57500,3656
2.58333,3593
2.59167,3571
2.60000,3581
2.60833,3615
2.61667,3666
2.62500,3728
2.63333,3794
2.64167,3854
2.65000,3900
2.65833,3927
2.66667,3934
2.67500,3920
2.68333,3887
2.69167,3835
2.70000,3760
2.70833,3665
2.71667,3551
2.72500,3417
2.73333,3264
2.74167,3092
2.75000,2904
2.75833,2701
2.76667,2486
2.77500,2264
2.78333,2036
2.79167,1805
2.80000,1580
2.80833,1363
2.81667,1161
2.82500,978
2.83333,817
2.84167,678
2.85000,561
2.85833,465
2.86667,393
2.87500,346
2.88333,320
2.89167,318
2.90000,341
2.90833,392
2.91667,470
2.92500,574
2.93333,701
2.94167,856
2.95000,1031
2.95833,1214
2.96667,1403
2.97500,1596
2.98333,1788
2.99167,1975
3.00000,2161
3.00833,2343
3.01667,2519
3.02500,2690
3.03333,2852
3.04167,3008
3.05000,3153
3.05833,3287
3.06667,3412
3.07500,3521
3.08333,3617
3.09167,3702
3.10000,3774
3.10833,3834
3.11667,3887
3.12500,3934
3.13333,3977
3.14167,4014
3.15000,4043
3.15833,4062
3.16667,4074
3.17500,4076
3.18333,4067
3.19167,4049
3.20000,4021
3.20833,3985
3.21667,3942
3.22500,3898
3.23333,3853
3.24167,3810
3.25000,3772
3.25833,3740
3.26667,3712
3.27500,3686
3.28333,3658
3.29167,3626
3.30000,3588
3.30833,3543
3.31667,3492
3.32500,3435
3.33333,3369
3.34167,3297
3.35000,3217
3.35833,3129
3.36667,3035
3.37500,2934
3.38333,2824
3.39167,2712
3.40000,2601
3.40833,2491
3.41667,2383
3.42500,2287
3.43333,2204
3.44167,2136
3.45000,2086
3.45833,2058
3.46667,2050
3.47500,2063
3.48333,2095
3.49167,2145
3.50000,2213
3.50833,2295
3.51667,2387
3.52500,2489
3.53333,2595
3.54167,2709
3.55000,2833
3.55833,2963
3.56667,3101
3.57500,3251
3.58333,3414
3.59167,3585
3.60000,3770
3.60833,3971
3.61667,4189
3.62500,4429
3.63333,4691
3.64167,4972
3.65000,5271
3.65833,5578
3.66667,5886
3.67500,6188
3.68333,6476
3.69167,6741
3.70000,6982
3.70833,7195
3.71667,7377
3.72500,7532
3.73333,7664
3.74167,7784
3.75000,7909
3.75833,8064
3.76667,8292
3.77500,8654
3.78333,9244
3.79167,10185
3.80000,11649
3.80833,13878
3.81667,17182
3.82500,21948
3.83333,28676
3.84167,37967
3.85000,50478
3.85833,66938
3.86667,88110
3.87500,114596
3.88333,146821
3.89167,184820
3.90000,228013
3.90833,275491
3.91667,326025
3.92500,377998
3.93333,429698
3.94167,479450
3.95000,525720
3.95833,567355
3.96667,603634
3.97500,634204
3.98333,658985
3.99167,678039
4.00000,691540
4.00833,699762
4.01667,702975
4.02500,701373
4.03333,695130
4.04167,684417
4.05000,669494
4.05833,650696
4.06667,628450
4.07500,603294
4.08333,575764
4.09167,546389
4.10000,515760
4.10833,484487
4.11667,453135
4.12500,422241
4.13333,392182
4.14167,363197
4.15000,335502
4.15833,309287
4.16667,284661
4.17500,261731
4.18333,240564
4.19167,221112
4.20000,203315
4.20833,187107
4.21667,172391
4.22500,159091
4.23333,147138
4.24167,136426
4.25000,126840
4.25833,118277
4.26667,110620
4.27500,103775
4.28333,97664
4.29167,92211
4.30000,87340
4.30833,82976
4.31667,79053
4.32500,75515
4.33333,72324
4.34167,69443
4.35000,66843
4.35833,64495
4.36667,62365
4.37500,60424
4.38333,58648
4.39167,57010
4.40000,55490
4.40833,54067
4.41667,52719
4.42500,51426
4.43333,50171
4.44167,48943
4.45000,47739
4.45833,46557
4.46667,45394
4.47500,44244
4.48333,43109
4.49167,41988
4.50000,40883
4.50833,39791
4.51667,38714
4.52500,37653
4.53333,36610
4.54167,35585
4.55000,34579
4.55833,33596
4.56667,32643
4.57500,31723
4.58333,30838
4.59167,29989
4.60000,29175
4.60833,28400
4.61667,27658
4.62500,26946
4.63333,26264
4.64167,25615
4.65000,24991
4.65833,24389
4.66667,23807
4.67500,23241
4.68333,22693
4.69167,22161
4.70000,21643
4.70833,21139
4.71667,20651
4.72500,20175
4.73333,19712
4.74167,19264
4.75000,18829
4.75833,18410
4.76667,18004
4.77500,17614
4.78333,17241
4.79167,16886
4.80000,16546
4.80833,16222
4.81667,15917
4.82500,15629
4.83333,15357
4.84167,15101
4.85000,14860
4.85833,14637
4.86667,14436
4.87500,14255
4.88333,14095
4.89167,13958
4.90000,13850
4.90833,13779
4.91667,13751
4.92500,13776
4.93333,13866
4.94167,14037
4.95000,14318
4.95833,14734
4.96667,15320
4.97500,16115
4.98333,17166
4.99167,18524
5.00000,20237
5.00833,22344
5.01667,24872
5.02500,27827
5.03333,31193
5.04167,34912
5.05000,38920
5.05833,43133
5.06667,47454
5.07500,51797
5.08333,56082
5.09167,60251
5.10000,64292
5.10833,68235
5.11667,72150
5.12500,76137
5.13333,80295
5.14167,84695
5.15000,89375
5.15833,94302
5.16667,99385
5.17500,104491
5.18333,109440
5.19167,114024
5.20000,118063
5.20833,121412
5.21667,123995
5.22500,125802
5.23333,126880
5.24167,127316
5.25000,127214
5.25833,126667
5.26667,125757
5.27500,124523
5.28333,122977
5.29167,121113
5.30000,118904
5.30833,116340
5.31667,113433
5.32500,110199
5.33333,106658
5.34167,102852
5.35000,98823
5.35833,94623
5.36667,90327
5.37500,85996
5.38333,81680
5.39167,77423
5.40000,73257
5.40833,69207
5.41667,65310
5.42500,61588
5.43333,58056
5.44167,54727
5.45000,51598
5.45833,48666
5.46667,45932
5.47500,43391
5.48333,41036
5.49167,38865
5.50000,36866
5.50833,35020
5.51667,33319
5.52500,31750
5.53333,30304
5.54167,28972
5.55000,27749
5.55833,26623
5.56667,25583
5.57500,24624
5.58333,23736
5.59167,22912
5.60000,22150
5.60833,21445
5.61667,20792
5.62500,20183
5.63333,19613
5.64167,19080
5.65000,18582
5.65833,18115
5.66667,17679
5.67500,17269
5.68333,16884
5.69167,16524
5.70000,16189
5.70833,15877
5.71667,15584
5.72500,15313
5.73333,15060
5.74167,14823
5.75000,14605
5.75833,14404
5.76667,14216
5.77500,14044
5.78333,13885
5.79167,13738
5.80000,13604
5.80833,13483
5.81667,13375
5.82500,13278
5.83333,13192
5.84167,13117
5.85000,13051
5.85833,12995
5.86667,12944
5.87500,12899
5.88333,12861
5.89167,12827
5.90000,12801
5.90833,12779
5.91667,12757
5.92500,12738
5.93333,12720
5.94167,12702
5.95000,12685
5.95833,12672
5.96667,12658
5.97500,12642
5.98333,12625
5.99167,12602
6.00000,12575
6.00833,12544
6.01667,12508
6.02500,12463
6.03333,12411
6.04167,12353
6.05000,12291
6.05833,12225
6.06667,12154
6.07500,12081
6.08333,12001
6.09167,11914
6.10000,11822
6.10833,11722
6.11667,11617
6.12500,11507
6.13333,11392
6.14167,11272
6.15000,11150
6.15833,11025
6.16667,10900
6.17500,10773
6.18333,10644
6.19167,10513
6.20000,10379
6.20833,10240
6.21667,10099
6.22500,9959
6.23333,9820
6.24167,9681
6.25000,9542
6.25833,9402
6.26667,9265
6.27500,9130
6.28333,8999
6.29167,8867
6.30000,8738
6.30833,8611
6.31667,8485
6.32500,8359
6.33333,8236
6.34167,8114
6.35000,7995
6.35833,7880
6.36667,7768
6.37500,7660
6.38333,7553
6.39167,7448
6.40000,7345
6.40833,7251
6.41667,7161
6.42500,7073
6.43333,6988
6.44167,6905
6.45000,6824
6.45833,6748
6.46667,6675
6.47500,6604
6.48333,6536
6.49167,6474
6.50000,6419
6.50833,6365
6.51667,6315
6.52500,6268
6.53333,6224
6.54167,6180
6.55000,6137
6.55833,6097
6.56667,6058
6.57500,6021
6.58333,5986
6.59167,5954
6.60000,5925
6.60833,5896
6.61667,5867
6.62500,5836
6.63333,5807
6.64167,5776
6.65000,5745
6.65833,5717
6.66667,5689
6.67500,5661
6.68333,5635
6.69167,5608
6.70000,5582
6.70833,5559
6.71667,5540
6.72500,5525
6.73333,5516
6.74167,5512
6.75000,5516
6.75833,5530
6.76667,5560
6.77500,5606
6.78333,5672
6.79167,5760
6.80000,5882
6.80833,6043
6.81667,6251
6.82500,6514
6.83333,6840
6.84167,7233
6.85000,7704
6.85833,8263
6.86667,8920
6.87500,9683
6.88333,10555
6.89167,11537
6.90000,12632
6.90833,13833
6.91667,15140
6.92500,16548
6.93333,18049
6.94167,19627
6.95000,21254
6.95833,22911
6.96667,24578
6.97500,26237
6.98333,27864
6.99167,29443
7.00000,30958
7.00833,32389
7.01667,33724
7.02500,34954
7.03333,36075
7.04167,37089
7.05000,37994
7.05833,38788
7.06667,39468
7.07500,40038
7.08333,40511
7.09167,40889
7.10000,41175
7.10833,41372
7.11667,41482
7.12500,41506
7.13333,41443
7.14167,41290
7.15000,41043
7.15833,40698
7.16667,40261
7.17500,39733
7.18333,39114
7.19167,38411
7.20000,37623
7.20833,36758
7.21667,35825
7.22500,34830
7.23333,33784
7.24167,32698
7.25000,31583
7.25833,30447
7.26667,29303
7.27500,28159
7.28333,27024
7.29167,25906
7.30000,24811
7.30833,23746
7.31667,22714
7.32500,21711
7.33333,20748
7.34167,19825
7.35000,18942
7.35833,18100
7.36667,17301
7.37500,16544
7.38333,15829
7.39167,15155
7.40000,14519
7.40833,13921
7.41667,13360
7.42500,12834
7.43333,12339
7.44167,11878
7.45000,11450
7.45833,11053
7.46667,10689
7.47500,10359
7.48333,10060
7.49167,9791
7.50000,9553
7.50833,9346
7.51667,9168
7.52500,9020
7.53333,8904
7.54167,8818
7.55000,8766
7.55833,8749
7.56667,8767
7.57500,8823
7.58333,8919
7.59167,9055
7.60000,9234
7.60833,9459
7.61667,9732
7.62500,10056
7.63333,10431
7.64167,10854
7.65000,11325
7.65833,11847
7.66667,12423
7.67500,13050
7.68333,13727
7.69167,14452
7.70000,15217
7.70833,16015
7.71667,16844
7.72500,17699
7.73333,18577
7.74167,19470
7.75000,20369
7.75833,21267
7.76667,22159
7.77500,23043
7.78333,23915
7.79167,24775
7.80000,25619
7.80833,26441
7.81667,27235
7.82500,27998
7.83333,28735
7.84167,29445
7.85000,30127
7.85833,30782
7.86667,31410
7.87500,32006
7.88333,32572
7.89167,33110
7.90000,33615
7.90833,34083
7.91667,34513
7.92500,34906
7.93333,35255
7.94167,35557
7.95000,35813
7.95833,36020
7.96667,36176
7.97500,36281
7.98333,36338
7.99167,36346
8.00000,36309
8.00833,36225
8.01667,36097
8.02500,35927
8.03333,35718
8.04167,35471
8.05000,35193
8.05833,34884
8.06667,34545
8.07500,34179
8.08333,33786
8.09167,33369
8.10000,32936
8.10833,32486
8.11667,32023
8.12500,31545
8.13333,31055
8.14167,30554
8.15000,30046
8.15833,29531
8.16667,29009
8.17500,28483
8.18333,27949
8.19167,27411
8.20000,26869
8.20833,26323
8.21667,25775
8.22500,25230
8.23333,24688
8.24167,24148
8.25000,23608
8.25833,23074
8.26667,22544
8.27500,22020
8.28333,21501
8.29167,20986
8.30000,20473
8.30833,19965
8.31667,19464
8.32500,18975
8.33333,18497
8.34167,18026
8.35000,17567
8.35833,17118
8.36667,16676
8.37500,16245
8.38333,15828
8.39167,15421
8.40000,15027
8.40833,14645
8.41667,14272
8.42500,13912
8.43333,13564
8.44167,13224
8.45000,12894
8.45833,12580
8.46667,12277
8.47500,11985
8.48333,11704
8.49167,11435
8.50000,11179
8.50833,10933
8.51667,10694
8.52500,10465
8.53333,10246
8.54167,10037
8.55000,9835
8.55833,9641
8.56667,9454
8.57500,9278
8.58333,9111
8.59167,8951
8.60000,8796
8.60833,8650
8.61667,8505
8.62500,8364
8.63333,8228
8.64167,8098
8.65000,7974
8.65833,7853
8.66667,7737
8.67500,7624
8.68333,7519
8.69167,7418
8.70000,7318
8.70833,7220
8.71667,7123
8.72500,7028
8.73333,6934
8.74167,6843
8.75000,6755
8.75833,6670
8.76667,6585
8.77500,6502
8.78333,6420
8.79167,6339
8.80000,6261
8.80833,6186
8.81667,6113
8.82500,6041
8.83333,5969
8.84167,5898
8.85000,5825
8.85833,5755
8.86667,5687
8.87500,5623
8.88333,5563
8.89167,5505
8.90000,5451
8.90833,5400
8.91667,5352
8.92500,5311
8.93333,5278
8.94167,5250
8.95000,5228
8.95833,5216
8.96667,5212
8.97500,5216
8.98333,5232
8.99167,5261
9.00000,5302
9.00833,5356
9.01667,5423
9.02500,5506
9.03333,5607
9.04167,5725
9.05000,5857
9.05833,6003
9.06667,6167
9.07500,6348
9.08333,6548
9.09167,6763
9.10000,6991
9.10833,7236
9.11667,7494
9.12500,7762
9.13333,8035
9.14167,8314
9.15000,8598
9.15833,8882
9.16667,9163
9.17500,9440
9.18333,9710
9.19167,9972
9.20000,10226
9.20833,10469
9.21667,10697
9.22500,10912
9.23333,11113
9.24167,11295
9.25000,11457
9.25833,11605
9.26667,11740
9.27500,11855
9.28333,11951
9.29167,12032
9.30000,12099
9.30833,12153
9.31667,12197
9.32500,12229
9.33333,12250
9.34167,12260
9.35000,12255
9.35833,12238
9.36667,12211
9.37500,12169
9.38333,12114
9.39167,12045
9.40000,11964
9.40833,11871
9.41667,11766
9.42500,11646
9.43333,11511
9.44167,11366
9.45000,11207
9.45833,11037
9.46667,10856
9.47500,10664
9.48333,10463
9.49167,10252
9.50000,10033
9.50833,9807
9.51667,9577
9.52500,9347
9.53333,9115
9.54167,8882
9.55000,8650
9.55833,8420
9.56667,8196
9.57500,7976
9.58333,7759
9.59167,7547
9.60000,7343
9.60833,7142
9.61667,6948
9.62500,6762
9.63333,6585
9.64167,6420
9.65000,6262
9.65833,6106
9.66667,5958
9.67500,5820
9.68333,5684
9.69167,5554
9.70000,5432
9.70833,5316
9.71667,5203
9.72500,5094
9.73333,4991
9.74167,4893
9.75000,4800
9.75833,4713
9.76667,4631
9.77500,4552
9.78333,4478
9.79167,4408
9.80000,4338
9.80833,4271
9.81667,4206
9.82500,4143
9.83333,4085
9.84167,4025
9.85000,3968
9.85833,3915
9.86667,3867
9.87500,3822
9.88333,3778
9.89167,3740
9.90000,3703
9.90833,3665
9.91667,3628
9.92500,3591
9.93333,3554
9.94167,3520
9.95000,3486
9.95833,3452
9.96667,3422
9.97500,3395
9.98333,3368
9.99167,3342
10.00000,3321
10.00833,3302
10.01667,3282
10.02500,3263
10.03333,3243
10.04167,3226
10.05000,3213
10.05833,3200
10.06667,3188
10.07500,3175
10.08333,3162
10.09167,3153
10.10000,3147
10.10833,3141
10.11667,3133
10.12500,3125
10.13333,3118
10.14167,3111
10.15000,3102
10.15833,3093
10.16667,3085
10.17500,3079
10.18333,3073
10.19167,3068
10.20000,3064
10.20833,3060
10.21667,3054
10.22500,3050
10.23333,3045
10.24167,3041
10.25000,3035
10.25833,3029
10.26667,3023
10.27500,3017
10.28333,3010
10.29167,3004
10.30000,3000
10.30833,2993
10.31667,2987
10.32500,2980
10.33333,2975
10.34167,2971
10.35000,2963
10.35833,2952
10.36667,2938
10.37500,2924
10.38333,2911
10.39167,2899
10.40000,2890
10.40833,2881
10.41667,2868
10.42500,2856
10.43333,2846
10.44167,2837
10.45000,2829
10.45833,2818
10.46667,2808
10.47500,2799
10.48333,2789
10.49167,2785
10.50000,2783
10.50833,2783
10.51667,2785
10.52500,2791
10.53333,2800
10.54167,2813
10.55000,2827
10.55833,2843
10.56667,2858
10.57500,2877
10.58333,2897
10.59167,2919
10.60000,2943
10.60833,2969
10.61667,2997
10.62500,3025
10.63333,3051
10.64167,3077
10.65000,3102
10.65833,3126
10.66667,3151
10.67500,3173
10.68333,3192
10.69167,3207
10.70000,3221
10.70833,3234
10.71667,3244
10.72500,3253
10.73333,3260
10.74167,3263
10.75000,3267
10.75833,3270
10.76667,3270
10.77500,3266
10.78333,3258
10.79167,3247
10.80000,3235
10.80833,3221
10.81667,3204
10.82500,3189
10.83333,3174
10.84167,3159
10.85000,3145
10.85833,3129
10.86667,3112
10.87500,3095
10.88333,3078
10.89167,3059
10.90000,3041
10.90833,3024
10.91667,3007
10.92500,2988
10.93333,2970
10.94167,2953
10.95000,2937
10.95833,2923
10.96667,2913
10.97500,2903
10.98333,2892
10.99167,2880
11.00000,2868
11.00833,2857
11.01667,2845
11.02500,2833
11.03333,2823
11.04167,2814
11.05000,2801
11.05833,2793
11.06667,2784
11.07500,2776
11.08333,2770
11.09167,2766
11.10000,2760
11.10833,2750
11.11667,2739
11.12500,2729
11.13333,2722
11.14167,2716
11.15000,2709
11.15833,2702
11.16667,2696
11.17500,2693
11.18333,2692
11.19167,2690
11.20000,2688
11.20833,2689
11.21667,2690
11.22500,2691
11.23333,2692
11.24167,2691
11.25000,2692
11.25833,2698
11.26667,2706
11.27500,2715
11.28333,2731
11.29167,2749
11.30000,2768
11.30833,2790
11.31667,2812
11.32500,2837
11.33333,2867
11.34167,2900
11.35000,2936
11.35833,2974
11.36667,3016
11.37500,3065
11.38333,3117
11.39167,3174
11.40000,3237
11.40833,3306
11.41667,3379
11.42500,3456
11.43333,3541
11.44167,3630
11.45000,3722
11.45833,3822
11.46667,3924
11.47500,4027
11.48333,4136
11.49167,4248
11.50000,4360
11.50833,4476
11.51667,4597
11.52500,4717
11.53333,4835
11.54167,4953
11.55000,5065
11.55833,5175
11.56667,5280
11.57500,5378
11.58333,5473
11.59167,5567
11.60000,5654
11.60833,5734
11.61667,5810
11.62500,5877
11.63333,5937
11.64167,5990
11.65000,6039
11.65833,6084
11.66667,6124
11.67500,6152
11.68333,6177
11.69167,6200
11.70000,6218
11.70833,6232
11.71667,6247
11.72500,6258
11.73333,6266
11.74167,6269
11.75000,6271
11.75833,6269
11.76667,6261
11.77500,6252
11.78333,6241
11.79167,6225
11.80000,6204
11.80833,6179
11.81667,6153
11.82500,6123
11.83333,6089
11.84167,6053
11.85000,6014
11.85833,5968
11.86667,5916
11.87500,5862
11.88333,5807
11.89167,5748
11.90000,5686
11.90833,5624
11.91667,5561
11.92500,5496
11.93333,5430
11.94167,5365
11.95000,5300
11.95833,5233
11.96667,5164
11.97500,5097
11.98333,5032
11.99167,4968
12.00000,4903
12.00833,4839
12.01667,4778
12.02500,4719
12.03333,4661
12.04167,4607
12.05000,4557
12.05833,4504
12.06667,4451
12.07500,4399
12.08333,4346
12.09167,4297
12.10000,4248
12.10833,4201
12.11667,4154
12.12500,4104
12.13333,4054
12.14167,4010
12.15000,3971
12.15833,3933
12.16667,3897
12.17500,3861
12.18333,3825
12.19167,3791
12.20000,3759
12.20833,3725
12.21667,3690
12.22500,3656
12.23333,3624
12.24167,3595
12.25000,3566
12.25833,3540
12.26667,3515
12.27500,3491
12.28333,3465
12.29167,3440
12.30000,3417
12.30833,3394
12.31667,3372
12.32500,3349
12.33333,3326
12.34167,3303
12.35000,3281
12.35833,3262
12.36667,3246
12.37500,3231
12.38333,3217
12.39167,3206
12.40000,3196
12.40833,3184
12.41667,3173
12.42500,3161
12.43333,3150
12.44167,3139
12.45000,3129
12.45833,3121
12.46667,3115
12.47500,3108
12.48333,3103
12.49167,3099
12.50000,3097
12.50833,3095
12.51667,3096
12.52500,3095
12.53333,3093
12.54167,3092
12.55000,3094
12.55833,3096
12.56667,3095
12.57500,3097
12.58333,3102
12.59167,3107
12.60000,3112
12.60833,3117
12.61667,3121
12.62500,3125
12.63333,3129
12.64167,3132
12.65000,3134
12.65833,3134
12.66667,3132
12.67500,3130
12.68333,3128
12.69167,3127
12.70000,3125
12.70833,3122
12.71667,3120
12.72500,3119
12.73333,3116
12.74167,3112
12.75000,3107
12.75833,3101
12.76667,3095
12.77500,3090
12.78333,3083
12.79167,3078
12.80000,3073
12.80833,3068
12.81667,3064
12.82500,3059
12.83333,3057
12.84167,3054
12.85000,3050
12.85833,3044
12.86667,3039
12.87500,3034
12.88333,3029
12.89167,3022
12.90000,3018
12.90833,3015
12.91667,3014
12.92500,3012
12.93333,3007
12.94167,3004
12.95000,3002
12.95833,2999
12.96667,2996
12.97500,2991
12.98333,2987
12.99167,2985
13.00000,2980
13.00833,2978
13.01667,2980
13.02500,2982
13.03333,2984
13.04167,2983
13.05000,2984
13.05833,2985
13.06667,2983
13.07500,2979
13.08333,2975
13.09167,2971
13.10000,2969
13.10833,2969
13.11667,2967
13.12500,2964
13.13333,2962
13.14167,2959
13.15000,2956
13.15833,2953
13.16667,2948
13.17500,2941
13.18333,2936
13.19167,2926
13.20000,2914
13.20833,2901
13.21667,2890
13.22500,2881
13.23333,2875
13.24167,2868
13.25000,2862
13.25833,2855
13.26667,2845
13.27500,2835
13.28333,2825
13.29167,2814
13.30000,2805
13.30833,2796
13.31667,2787
13.32500,2777
13.33333,2769
13.34167,2761
13.35000,2755
13.35833,2751
13.36667,2744
13.37500,2733
13.38333,2724
13.39167,2715
13.40000,2702
13.40833,2688
13.41667,2673
13.42500,2658
13.43333,2644
13.44167,2633
13.45000,2622
13.45833,2612
13.46667,2599
13.47500,2585
13.48333,2571
13.49167,2557
13.50000,2543
13.50833,2528
13.51667,2511
13.52500,2493
13.53333,2475
13.54167,2456
13.55000,2440
13.55833,2429
13.56667,2418
13.57500,2404
13.58333,2389
13.59167,2377
13.60000,2366
13.60833,2356
13.61667,2344
13.62500,2333
13.63333,2320
13.64167,2306
13.65000,2290
13.65833,2277
13.66667,2267
13.67500,2256
13.68333,2247
13.69167,2237
13.70000,2228
13.70833,2220
13.71667,2211
13.72500,2200
13.73333,2189
13.74167,2177
13.75000,2163
13.75833,2149
13.76667,2137
13.77500,2126
13.78333,2117
13.79167,2109
13.80000,2101
13.80833,2092
13.81667,2079
13.82500,2067
13.83333,2057
13.84167,2045
13.85000,2034
13.85833,2024
13.86667,2012
13.87500,1997
13.88333,1985
13.89167,1977
13.90000,1966
13.90833,1958
13.91667,1952
13.92500,1945
13.93333,1937
13.94167,1931
13.95000,1923
13.95833,1915
13.96667,1906
13.97500,1897
13.98333,1890
13.99167,1883
14.00000,1878
14.00833,1871
14.01667,1863
14.02500,1853
14.03333,1846
14.04167,1840
14.05000,1835
14.05833,1830
14.06667,1825
14.07500,1820
14.08333,1812
14.09167,1807
14.10000,1803
14.10833,1802
14.11667,1801
14.12500,1801
14.13333,1800
14.14167,1799
14.15000,1798
14.15833,1798
14.16667,1797
14.17500,1797
14.18333,1798
14.19167,1800
14.20000,1801
14.20833,1802
14.21667,1805
14.22500,1807
14.23333,1809
14.24167,1814
14.25000,1816
14.25833,1819
14.26667,1823
14.27500,1825
14.28333,1824
14.29167,1825
14.30000,1825
14.30833,1823
14.31667,1820
14.32500,1817
14.33333,1818
14.34167,1819
14.35000,1818
14.35833,1816
14.36667,1818
14.37500,1818
14.38333,1816
14.39167,1815
14.40000,1816
14.40833,1819
14.41667,1821
14.42500,1822
14.43333,1824
14.44167,1830
14.45000,1835
14.45833,1841
14.46667,1845
14.47500,1847
14.48333,1849
14.49167,1853
14.50000,1856
14.50833,1855
14.51667,1855
14.52500,1854
14.53333,1852
14.54167,1851
14.55000,1850
14.55833,1849
14.56667,1846
14.57500,1843
14.58333,1838
14.59167,1830
14.60000,1822
14.60833,1815
14.61667,1808
14.62500,1802
14.63333,1796
14.64167,1791
14.65000,1789
14.65833,1786
14.66667,1786
14.67500,1787
14.68333,1789
14.69167,1791
14.70000,1793
14.70833,1796
14.71667,1801
14.72500,1809
14.73333,1817
14.74167,1828
14.75000,1843
14.75833,1860
14.76667,1875
14.77500,1892
14.78333,1909
14.79167,1926
14.80000,1943
14.80833,1958
14.81667,1975
14.82500,1991
14.83333,2005
14.84167,2017
14.85000,2028
14.85833,2040
14.86667,2050
14.87500,2061
14.88333,2073
14.89167,2085
14.90000,2096
14.90833,2103
14.91667,2111
14.92500,2114
14.93333,2117
14.94167,2120
14.95000,2120
14.95833,2121
14.96667,2122
14.97500,2126
14.98333,2131
14.99167,2138
15.00000,2144

[LC Status Trace(Pump A Pressure)]
Interval(msec),1000
# of Points,901
Start Time(min),0.000
End Time(min),15.000
Intensity Units,kgf/cm2
Intensity Multiplier,1
R.Time (min),Intensity
0.00000,229.9
0.01667,229.9
0.03333,229.3
0.05000,220.9
0.06667,222.6
0.08333,224.5
0.10000,226.7
0.11667,227.7
0.13333,230.6
0.15000,231.6
0.16667,232.1
0.18333,234.3
0.20000,233.7
0.21667,233.9
0.23333,233.8
0.25000,232.6
0.26667,230.2
0.28333,230.7
0.30000,230.7
0.31667,230.7
0.33333,231.3
0.35000,231.7
0.36667,231.7
0.38333,229.1
0.40000,229.8
0.41667,230.6
0.43333,230.7
0.45000,230.8
0.46667,231.3
0.48333,228.5
0.50000,228.6
0.51667,229.8
0.53333,230.4
0.55000,230.2
0.56667,231.0
0.58333,231.0
0.60000,228.5
0.61667,229.1
0.63333,230.1
0.65000,230.6
0.66667,230.4
0.68333,231.0
0.70000,230.4
0.71667,228.5
0.73333,229.4
0.75000,230.3
0.76667,230.1
0.78333,230.3
0.80000,229.4
0.81667,228.6
0.83333,228.6
0.85000,229.3
0.86667,230.2
0.88333,230.1
0.90000,230.2
0.91667,228.2
0.93333,228.1
0.95000,228.5
0.96667,229.7
0.98333,230.4
1.00000,230.1
1.01667,230.3
1.03333,228.4
1.05000,228.6
1.06667,229.1
1.08333,230.2
1.10000,229.7
1.11667,230.1
1.13333,228.2
1.15000,229.1
1.16667,228.6
1.18333,229.5
1.20000,230.2
1.21667,230.4
1.23333,229.9
1.25000,228.1
1.26667,228.4
1.28333,228.9
1.30000,229.4
1.31667,230.3
1.33333,229.8
1.35000,229.8
1.36667,228.4
1.38333,228.9
1.40000,228.9
1.41667,229.9
1.43333,230.4
1.45000,230.2
1.46667,227.6
1.48333,228.6
1.50000,228.9
1.51667,229.3
1.53333,230.1
1.55000,230.1
1.56667,228.4
1.58333,227.3
1.60000,228.5
1.61667,228.6
1.63333,229.3
1.65000,229.8
1.66667,230.3
1.68333,227.6
1.70000,228.2
1.71667,229.3
1.73333,229.4
1.75000,229.8
1.76667,230.7
1.78333,228.6
1.80000,228.2
1.81667,229.5
1.83333,230.6
1.85000,230.4
1.86667,231.0
1.88333,231.5
1.90000,229.1
1.91667,229.5
1.93333,230.6
1.95000,230.8
1.96667,230.8
1.98333,231.5
2.00000,231.6
2.01667,229.0
2.03333,229.5
2.05000,230.3
2.06667,231.0
2.08333,230.6
2.10000,231.0
2.11667,228.9
2.13333,229.0
2.15000,229.1
2.16667,230.3
2.18333,230.3
2.20000,230.4
2.21667,230.7
2.23333,229.0
2.25000,228.8
2.26667,229.5
2.28333,230.6
2.30000,230.7
2.31667,230.3
2.33333,228.6
2.35000,229.0
2.36667,228.9
2.38333,230.1
2.40000,230.4
2.41667,230.2
2.43333,228.9
2.45000,228.5
2.46667,229.0
2.48333,229.3
2.50000,229.9
2.51667,230.6
2.53333,230.1
2.55000,228.0
2.56667,229.0
2.58333,228.9
2.60000,229.1
2.61667,230.3
2.63333,230.6
2.65000,229.9
2.66667,228.1
2.68333,229.0
2.70000,229.3
2.71667,229.7
2.73333,230.4
2.75000,230.7
2.76667,227.8
2.78333,228.9
2.80000,229.0
2.81667,229.3
2.83333,230.3
2.85000,230.4
2.86667,230.4
2.88333,228.1
2.90000,229.0
2.91667,229.7
2.93333,229.9
2.95000,230.1
2.96667,230.6
2.98333,227.8
3.00000,228.1
3.01667,229.0
3.03333,229.9
3.05000,229.7
3.06667,230.4
3.08333,230.2
3.10000,228.4
3.11667,228.8
3.13333,229.5
3.15000,229.8
3.16667,229.9
3.18333,230.6
3.20000,229.4
3.21667,228.4
3.23333,229.1
3.25000,230.1
3.26667,229.7
3.28333,230.1
3.30000,230.4
3.31667,228.2
3.33333,228.4
3.35000,229.1
3.36667,230.1
3.38333,229.9
3.40000,230.1
3.41667,228.2
3.43333,228.8
3.45000,228.5
3.46667,229.7
3.48333,230.3
3.50000,229.9
3.51667,230.3
3.53333,228.4
3.55000,229.0
3.56667,229.1
3.58333,230.2
3.60000,230.4
3.61667,230.1
3.63333,228.1
3.65000,228.2
3.66667,228.5
3.68333,229.4
3.70000,230.3
3.71667,230.4
3.73333,230.1
3.75000,228.1
3.76667,229.0
3.78333,229.0
3.80000,230.1
3.81667,230.4
3.83333,229.9
3.85000,229.7
3.86667,228.5
3.88333,229.0
3.90000,229.1
3.91667,230.2
3.93333,230.6
3.95000,230.1
3.96667,228.0
3.98333,229.0
4.00000,229.1
4.01667,229.7
4.03333,230.4
4.05000,230.6
4.06667,228.5
4.08333,228.8
4.10000,229.0
4.11667,229.4
4.13333,229.9
4.15000,230.4
4.16667,230.7
4.18333,227.8
4.20000,228.6
4.21667,229.4
4.23333,229.4
4.25000,230.3
4.26667,230.4
4.28333,228.1
4.30000,227.7
4.31667,228.8
4.33333,229.8
4.35000,229.5
4.36667,230.1
4.38333,230.6
4.40000,228.1
4.41667,228.6
4.43333,229.5
4.45000,229.9
4.46667,229.8
4.48333,230.4
4.50000,230.4
4.51667,228.0
4.53333,228.6
4.55000,229.4
4.56667,230.3
4.58333,229.9
4.60000,230.3
4.61667,228.4
4.63333,228.4
4.65000,229.4
4.66667,229.9
4.68333,229.9
4.70000,230.2
4.71667,230.2
4.73333,228.8
4.75000,228.5
4.76667,229.4
4.78333,230.3
4.80000,230.4
4.81667,230.1
4.83333,228.4
4.85000,228.0
4.86667,228.8
4.88333,229.9
4.90000,230.3
4.91667,229.9
4.93333,228.4
4.95000,228.2
4.96667,229.0
4.98333,229.0
5.00000,229.9
5.01667,230.6
5.03333,229.9
5.05000,228.0
5.06667,228.9
5.08333,229.0
5.10000,229.1
5.11667,230.3
5.13333,230.4
5.15000,230.1
5.16667,228.1
5.18333,229.0
5.20000,229.1
5.21667,229.8
5.23333,230.4
5.25000,230.4
5.26667,227.8
5.28333,229.0
5.30000,228.9
5.31667,229.3
5.33333,230.2
5.35000,230.4
5.36667,230.4
5.38333,228.0
5.40000,228.8
5.41667,229.5
5.43333,229.9
5.45000,230.1
5.46667,230.7
5.48333,227.8
5.50000,228.1
5.51667,229.1
5.53333,229.9
5.55000,229.5
5.56667,230.3
5.58333,229.9
5.60000,227.7
5.61667,228.5
5.63333,229.5
5.65000,230.1
5.66667,230.1
5.68333,230.6
5.70000,229.0
5.71667,228.5
5.73333,229.1
5.75000,229.7
5.76667,229.8
5.78333,230.2
5.80000,230.7
5.81667,228.5
5.83333,228.5
5.85000,229.1
5.86667,230.2
5.88333,229.9
5.90000,229.9
5.91667,228.4
5.93333,228.6
5.95000,228.6
5.96667,229.7
5.98333,230.4
6.00000,229.9
6.01667,230.3
6.03333,228.4
6.05000,229.0
6.06667,229.1
6.08333,230.2
6.10000,230.4
6.11667,230.1
6.13333,228.2
6.15000,228.4
6.16667,228.6
6.18333,229.7
6.20000,230.2
6.21667,230.4
6.23333,230.1
6.25000,228.1
6.26667,229.0
6.28333,229.0
6.30000,229.7
6.31667,230.4
6.33333,229.9
6.35000,229.7
6.36667,228.8
6.38333,229.1
6.40000,229.0
6.41667,230.2
6.43333,230.6
6.45000,230.2
6.46667,227.8
6.48333,228.9
6.50000,229.1
6.51667,229.5
6.53333,230.4
6.55000,230.6
6.56667,228.0
6.58333,228.8
6.60000,229.5
6.61667,229.3
6.63333,229.9
6.65000,230.3
6.66667,230.6
6.68333,228.0
6.70000,228.6
6.71667,229.4
6.73333,229.7
6.75000,229.8
6.76667,230.4
6.78333,228.1
6.80000,227.7
6.81667,228.9
6.83333,229.9
6.85000,229.7
6.86667,230.2
6.88333,230.6
6.90000,228.2
6.91667,228.5
6.93333,229.5
6.95000,230.3
6.96667,229.9
6.98333,230.4
7.00000,230.6
7.01667,228.0
7.03333,228.6
7.05000,229.9
7.06667,230.2
7.08333,229.9
7.10000,230.3
7.11667,228.2
7.13333,228.4
7.15000,228.8
7.16667,229.9
7.18333,230.1
7.20000,230.1
7.21667,229.8
7.23333,228.8
7.25000,228.6
7.26667,229.4
7.28333,230.4
7.30000,230.4
7.31667,230.1
7.33333,228.2
7.35000,229.0
7.36667,229.0
7.38333,230.1
7.40000,230.3
7.41667,229.9
7.43333,227.7
7.45000,228.4
7.46667,229.0
7.48333,229.3
7.50000,230.1
7.51667,230.6
7.53333,230.1
7.55000,228.0
7.56667,229.1
7.58333,229.1
7.60000,229.9
7.61667,230.4
7.63333,230.7
7.65000,228.0
7.66667,228.4
7.68333,229.1
7.70000,228.8
7.71667,229.8
7.73333,230.6
7.75000,230.7
7.76667,227.8
7.78333,228.9
7.80000,229.1
7.81667,229.3
7.83333,230.3
7.85000,230.6
7.86667,230.2
7.88333,228.1
7.90000,228.8
7.91667,229.7
7.93333,229.8
7.95000,230.4
7.96667,230.6
7.98333,227.7
8.00000,228.8
8.01667,229.0
8.03333,229.8
8.05000,229.7
8.06667,230.3
8.08333,229.5
8.10000,227.8
8.11667,228.5
8.13333,229.7
8.15000,230.2
8.16667,229.8
8.18333,230.6
8.20000,228.6
8.21667,228.4
8.23333,229.1
8.25000,229.5
8.26667,229.7
8.28333,230.2
8.30000,230.6
8.31667,228.1
8.33333,228.4
8.35000,229.1
8.36667,230.1
8.38333,230.3
8.40000,229.9
8.41667,230.3
8.43333,228.2
8.45000,228.5
8.46667,229.1
8.48333,230.4
8.50000,229.9
8.51667,229.9
8.53333,228.1
8.55000,228.6
8.56667,229.0
8.58333,230.1
8.60000,230.1
8.61667,230.1
8.63333,228.2
8.65000,229.0
8.66667,228.5
8.68333,229.7
8.70000,230.6
8.71667,230.4
8.73333,229.9
8.75000,228.2
8.76667,228.9
8.78333,229.0
8.80000,229.5
8.81667,230.4
8.83333,229.9
8.85000,229.4
8.86667,228.8
8.88333,229.0
8.90000,229.1
8.91667,230.1
8.93333,230.6
8.95000,229.9
8.96667,228.0
8.98333,229.0
9.00000,229.3
9.01667,229.4
9.03333,230.3
9.05000,230.4
9.06667,227.6
9.08333,228.8
9.10000,229.0
9.11667,229.4
9.13333,229.9
9.15000,230.3
9.16667,230.6
9.18333,227.8
9.20000,228.6
9.21667,229.5
9.23333,229.7
9.25000,229.9
9.26667,230.7
9.28333,228.1
9.30000,227.7
9.31667,228.5
9.33333,229.5
9.35000,229.5
9.36667,230.1
9.38333,230.4
9.40000,228.2
9.41667,228.5
9.43333,228.8
9.45000,229.8
9.46667,230.2
9.48333,230.4
9.50000,230.4
9.51667,228.2
9.53333,228.6
9.55000,229.5
9.56667,230.3
9.58333,229.9
9.60000,230.3
9.61667,228.1
9.63333,228.4
9.65000,228.6
9.66667,229.9
9.68333,229.9
9.70000,230.1
9.71667,229.4
9.73333,228.2
9.75000,228.4
9.76667,229.1
9.78333,229.8
9.80000,230.4
9.81667,230.1
9.83333,228.2
9.85000,228.9
9.86667,228.8
9.88333,229.9
9.90000,230.2
9.91667,229.9
9.93333,228.0
9.95000,228.1
9.96667,229.0
9.98333,229.3
10.00000,229.8
10.01667,230.6
10.03333,229.9
10.05000,227.8
10.06667,228.9
10.08333,228.9
10.10000,229.1
10.11667,230.3
10.13333,230.4
10.15000,229.9
10.16667,228.1
10.18333,229.0
10.20000,228.8
10.21667,229.7
10.23333,230.4
10.25000,230.6
10.26667,227.7
10.28333,228.9
10.30000,229.0
10.31667,229.7
10.33333,229.7
10.35000,230.3
10.36667,229.8
10.38333,227.6
10.40000,228.8
10.41667,229.0
10.43333,229.4
10.45000,229.9
10.46667,230.3
10.48333,227.8
10.50000,228.8
10.51667,228.8
10.53333,229.8
10.55000,229.9
10.56667,230.3
10.58333,229.0
10.60000,227.7
10.61667,228.6
10.63333,229.5
10.65000,229.8
10.66667,229.8
10.68333,230.4
10.70000,228.1
10.71667,228.2
10.73333,228.5
10.75000,229.7
10.76667,229.7
10.78333,229.9
10.80000,230.4
10.81667,228.2
10.83333,228.5
10.85000,229.3
10.86667,230.1
10.88333,229.8
10.90000,230.3
10.91667,228.2
10.93333,228.5
10.95000,228.4
10.96667,229.7
10.98333,230.3
11.00000,230.1
11.01667,230.2
11.03333,228.4
11.05000,229.0
11.06667,229.0
11.08333,230.1
11.10000,230.3
11.11667,230.1
11.13333,228.2
11.15000,228.5
11.16667,228.5
11.18333,229.5
11.20000,230.2
11.21667,230.4
11.23333,229.8
11.25000,228.2
11.26667,228.9
11.28333,229.0
11.30000,229.5
11.31667,230.1
11.33333,230.4
11.35000,228.9
11.36667,228.6
11.38333,228.9
11.40000,229.0
11.41667,229.4
11.43333,230.3
11.45000,229.5
11.46667,227.7
11.48333,228.9
11.50000,229.1
11.51667,229.4
11.53333,230.3
11.55000,230.4
11.56667,227.7
11.58333,228.8
11.60000,229.4
11.61667,229.3
11.63333,229.9
11.65000,230.2
11.66667,230.4
11.68333,227.8
11.70000,228.6
11.71667,229.5
11.73333,229.5
11.75000,229.8
11.76667,230.4
11.78333,230.4
11.80000,227.7
11.81667,228.9
11.83333,229.4
11.85000,229.8
11.86667,229.9
11.88333,230.4
11.90000,227.7
11.91667,228.4
11.93333,229.4
11.95000,230.1
11.96667,229.7
11.98333,230.3
12.00000,230.3
12.01667,228.0
12.03333,228.6
12.05000,229.4
12.06667,230.2
12.08333,229.9
12.10000,230.3
12.11667,228.1
12.13333,228.2
12.15000,228.5
12.16667,229.8
12.18333,229.8
12.20000,229.9
12.21667,229.0
12.23333,228.1
12.25000,228.5
12.26667,228.6
12.28333,230.2
12.30000,230.4
12.31667,229.8
12.33333,228.0
12.35000,229.0
12.36667,228.9
12.38333,229.3
12.40000,230.3
12.41667,230.3
12.43333,229.9
12.45000,228.1
12.46667,229.0
12.48333,229.0
12.50000,229.8
12.51667,230.4
12.53333,229.9
12.55000,227.7
12.56667,228.9
12.58333,229.0
12.60000,229.1
12.61667,230.3
12.63333,230.4
12.65000,229.9
12.66667,228.1
12.68333,229.0
12.70000,228.9
12.71667,229.7
12.73333,230.2
12.75000,230.6
12.76667,227.4
12.78333,228.0
12.80000,228.9
12.81667,229.1
12.83333,230.1
12.85000,230.3
12.86667,229.8
12.88333,228.1
12.90000,228.8
12.91667,229.5
12.93333,229.5
12.95000,229.8
12.96667,230.4
12.98333,227.6
13.00000,228.2
13.01667,229.0
13.03333,229.8
13.05000,229.5
13.06667,230.3
13.08333,228.5
13.10000,227.7
13.11667,228.5
13.13333,229.4
13.15000,229.8
13.16667,229.8
13.18333,230.4
13.20000,230.4
13.21667,228.2
13.23333,228.4
13.25000,229.4
13.26667,230.1
13.28333,230.1
13.30000,230.3
13.31667,228.1
13.33333,228.2
13.35000,229.1
13.36667,229.9
13.38333,229.8
13.40000,230.1
13.41667,230.2
13.43333,228.2
13.45000,228.5
13.46667,229.0
13.48333,230.3
13.50000,229.9
13.51667,230.2
13.53333,228.4
13.55000,228.9
13.56667,229.0
13.58333,230.1
13.60000,230.3
13.61667,230.1
13.63333,228.2
13.65000,228.5
13.66667,228.5
13.68333,229.7
13.70000,230.2
13.71667,230.4
13.73333,229.9
13.75000,228.1
13.76667,228.9
13.78333,228.2
13.80000,229.7
13.81667,230.4
13.83333,229.9
13.85000,228.5
13.86667,228.8
13.88333,229.1
13.90000,229.0
13.91667,230.1
13.93333,230.4
13.95000,229.7
13.96667,227.8
13.98333,229.0
14.00000,229.3
14.01667,229.4
14.03333,230.3
14.05000,230.4
14.06667,227.7
14.08333,228.9
14.10000,228.9
14.11667,229.0
14.13333,229.8
14.15000,229.8
14.16667,230.4
14.18333,227.7
14.20000,227.7
14.21667,228.9
14.23333,229.7
14.25000,229.7
14.26667,230.1
14.28333,228.0
14.30000,227.7
14.31667,228.6
14.33333,229.4
14.35000,229.7
14.36667,229.9
14.38333,230.4
14.40000,228.2
14.41667,227.8
14.43333,228.8
14.45000,230.2
14.46667,229.7
14.48333,230.3
14.50000,228.1
14.51667,228.0
14.53333,228.8
14.55000,229.5
14.56667,230.3
14.58333,229.9
14.60000,229.5
14.61667,228.2
14.63333,228.6
14.65000,228.6
14.66667,229.8
14.68333,229.8
14.70000,229.9
14.71667,228.4
14.73333,228.1
14.75000,228.4
14.76667,229.1
14.78333,230.3
14.80000,229.9
14.81667,230.1
14.83333,228.1
14.85000,228.5
14.86667,228.9
14.88333,229.9
14.90000,230.3
14.91667,229.8
14.93333,227.8
14.95000,228.1
14.96667,229.0
14.98333,229.1
15.00000,229.9

[LC Status Trace(Pump B Pressure)]
Interval(msec),1000
# of Points,901
Start Time(min),0.000
End Time(min),15.000
Intensity Units,kgf/cm2
Intensity Multiplier,1
R.Time (min),Intensity
0.00000,246.9
0.01667,246.9
0.03333,246.9
0.05000,236.9
0.06667,239.4
0.08333,239.4
0.10000,241.0
0.11667,244.3
0.13333,245.9
0.15000,245.9
0.16667,248.0
0.18333,251.0
0.20000,251.4
0.21667,251.0
0.23333,251.2
0.25000,250.8
0.26667,249.7
0.28333,246.9
0.30000,247.9
0.31667,248.0
0.33333,248.1
0.35000,248.1
0.36667,248.1
0.38333,247.5
0.40000,245.9
0.41667,247.5
0.43333,247.5
0.45000,247.6
0.46667,247.7
0.48333,247.7
0.50000,245.4
0.51667,246.7
0.53333,246.7
0.55000,247.1
0.56667,248.0
0.58333,247.6
0.60000,245.4
0.61667,245.9
0.63333,246.6
0.65000,247.3
0.66667,247.2
0.68333,247.2
0.70000,247.9
0.71667,244.9
0.73333,245.9
0.75000,245.9
0.76667,247.5
0.78333,246.9
0.80000,246.9
0.81667,245.5
0.83333,245.5
0.85000,246.3
0.86667,247.2
0.88333,247.1
0.90000,247.2
0.91667,245.4
0.93333,245.3
0.95000,245.6
0.96667,246.6
0.98333,247.2
1.00000,246.9
1.01667,247.1
1.03333,245.5
1.05000,245.9
1.06667,245.9
1.08333,247.2
1.10000,247.2
1.11667,247.2
1.13333,247.2
1.15000,245.5
1.16667,245.9
1.18333,246.4
1.20000,246.4
1.21667,247.5
1.23333,246.9
1.25000,246.9
1.26667,245.4
1.28333,245.6
1.30000,245.9
1.31667,245.9
1.33333,247.5
1.35000,247.5
1.36667,246.8
1.38333,245.4
1.40000,245.4
1.41667,246.2
1.43333,246.2
1.45000,246.2
1.46667,246.7
1.48333,246.7
1.50000,245.6
1.51667,246.0
1.53333,246.9
1.55000,246.9
1.56667,245.4
1.58333,245.0
1.60000,245.3
1.61667,245.1
1.63333,245.1
1.65000,246.8
1.66667,247.3
1.68333,244.9
1.70000,244.3
1.71667,244.3
1.73333,246.6
1.75000,246.6
1.76667,246.6
1.78333,245.5
1.80000,245.3
1.81667,246.3
1.83333,247.6
1.85000,247.1
1.86667,248.0
1.88333,248.6
1.90000,246.2
1.91667,246.6
1.93333,247.5
1.95000,247.7
1.96667,247.9
1.98333,248.4
2.00000,248.4
2.01667,245.9
2.03333,245.9
2.05000,247.2
2.06667,247.6
2.08333,247.6
2.10000,248.0
2.11667,245.8
2.13333,245.9
2.15000,245.9
2.16667,246.9
2.18333,247.3
2.20000,247.3
2.21667,247.5
2.23333,245.5
2.25000,246.0
2.26667,246.4
2.28333,246.4
2.30000,247.6
2.31667,247.2
2.33333,245.5
2.35000,245.5
2.36667,245.6
2.38333,245.6
2.40000,247.2
2.41667,247.1
2.43333,245.3
2.45000,245.3
2.46667,246.0
2.48333,246.2
2.50000,246.8
2.51667,247.6
2.53333,247.1
2.55000,245.1
2.56667,246.0
2.58333,245.8
2.60000,245.8
2.61667,247.3
2.63333,247.5
2.65000,246.9
2.66667,246.9
2.68333,245.9
2.70000,245.9
2.71667,246.6
2.73333,247.5
2.75000,247.6
2.76667,244.6
2.78333,245.9
2.80000,246.0
2.81667,246.2
2.83333,247.1
2.85000,247.6
2.86667,247.2
2.88333,244.9
2.90000,245.9
2.91667,246.6
2.93333,246.7
2.95000,246.9
2.96667,247.6
2.98333,244.7
3.00000,244.9
3.01667,246.0
3.03333,246.6
3.05000,246.6
3.06667,247.5
3.08333,247.6
3.10000,244.6
3.11667,245.6
3.13333,246.6
3.15000,247.1
3.16667,246.7
3.18333,247.6
3.20000,246.9
3.21667,245.1
3.23333,246.2
3.25000,246.2
3.26667,246.7
3.28333,246.7
3.30000,247.5
3.31667,245.0
3.33333,245.4
3.35000,246.2
3.36667,246.4
3.38333,246.8
3.40000,247.1
3.41667,245.6
3.43333,245.4
3.45000,245.4
3.46667,246.6
3.48333,247.3
3.50000,246.9
3.51667,247.3
3.53333,245.3
3.55000,245.9
3.56667,246.2
3.58333,247.1
3.60000,247.5
3.61667,247.1
3.63333,245.1
3.65000,245.1
3.66667,245.4
3.68333,245.9
3.70000,247.2
3.71667,247.3
3.73333,246.9
3.75000,245.0
3.76667,245.9
3.78333,246.3
3.80000,246.3
3.81667,247.3
3.83333,246.9
3.85000,246.4
3.86667,245.4
3.88333,246.2
3.90000,246.0
3.91667,246.9
3.93333,247.6
3.95000,247.2
3.96667,244.9
3.98333,245.9
4.00000,246.2
4.01667,246.6
4.03333,247.3
4.05000,247.3
4.06667,245.0
4.08333,244.6
4.10000,245.9
4.11667,246.2
4.13333,246.9
4.15000,247.3
4.16667,247.5
4.18333,244.5
4.20000,245.5
4.21667,246.3
4.23333,246.3
4.25000,246.3
4.26667,247.3
4.28333,245.0
4.30000,244.5
4.31667,245.6
4.33333,246.8
4.35000,246.6
4.36667,246.7
4.38333,247.5
4.40000,245.3
4.41667,245.4
4.43333,246.6
4.45000,246.6
4.46667,246.7
4.48333,247.2
4.50000,247.5
4.51667,244.7
4.53333,245.5
4.55000,246.6
4.56667,247.2
4.58333,246.9
4.60000,247.2
4.61667,245.1
4.63333,245.3
4.65000,245.3
4.66667,247.1
4.68333,246.9
4.70000,246.9
4.71667,246.2
4.73333,245.4
4.75000,245.3
4.76667,246.3
4.78333,247.2
4.80000,247.3
4.81667,246.9
4.83333,245.1
4.85000,245.5
4.86667,245.5
4.88333,247.1
4.90000,247.3
4.91667,246.9
4.93333,245.0
4.95000,245.1
4.96667,245.5
4.98333,246.2
5.00000,246.8
5.01667,247.5
5.03333,246.9
5.05000,246.9
5.06667,245.8
5.08333,245.8
5.10000,246.2
5.11667,247.2
5.13333,247.6
5.15000,246.9
5.16667,244.7
5.18333,246.0
5.20000,246.0
5.21667,246.8
5.23333,247.5
5.25000,247.5
5.26667,244.6
5.28333,244.9
5.30000,245.9
5.31667,246.2
5.33333,246.9
5.35000,247.5
5.36667,247.5
5.38333,245.0
5.40000,245.6
5.41667,246.6
5.43333,246.6
5.45000,246.9
5.46667,247.6
5.48333,244.7
5.50000,245.1
5.51667,246.0
5.53333,246.0
5.55000,246.7
5.56667,246.9
5.58333,247.1
5.60000,244.6
5.61667,245.4
5.63333,246.6
5.65000,247.1
5.66667,246.9
5.68333,247.3
5.70000,246.4
5.71667,245.3
5.73333,246.2
5.75000,246.6
5.76667,246.8
5.78333,247.2
5.80000,247.6
5.81667,245.3
5.83333,245.4
5.85000,246.2
5.86667,247.2
5.88333,246.8
5.90000,247.2
5.91667,245.3
5.93333,245.4
5.95000,245.4
5.96667,246.2
5.98333,247.3
6.00000,246.9
6.01667,247.3
6.03333,245.4
6.05000,245.4
6.06667,246.2
6.08333,246.6
6.10000,247.5
6.11667,247.1
6.13333,245.1
6.15000,245.4
6.16667,245.5
6.18333,246.6
6.20000,247.2
6.21667,247.5
6.23333,246.9
6.25000,246.9
6.26667,245.9
6.28333,245.8
6.30000,246.4
6.31667,247.5
6.33333,246.9
6.35000,246.3
6.36667,244.9
6.38333,246.0
6.40000,245.9
6.41667,247.2
6.43333,247.5
6.45000,247.3
6.46667,244.6
6.48333,245.9
6.50000,246.0
6.51667,246.4
6.53333,247.3
6.55000,247.5
6.56667,247.6
6.58333,245.9
6.60000,245.9
6.61667,245.5
6.63333,246.9
6.65000,246.9
6.66667,247.7
6.68333,244.6
6.70000,245.6
6.71667,246.2
6.73333,246.6
6.75000,246.9
6.76667,247.3
6.78333,244.5
6.80000,244.6
6.81667,245.9
6.83333,246.8
6.85000,246.7
6.86667,247.2
6.88333,247.6
6.90000,245.1
6.91667,245.5
6.93333,246.3
6.95000,246.9
6.96667,246.8
6.98333,247.3
7.00000,247.6
7.01667,244.5
7.03333,245.5
7.05000,246.2
7.06667,247.1
7.08333,246.9
7.10000,247.2
7.11667,245.1
7.13333,245.4
7.15000,245.6
7.16667,246.9
7.18333,247.1
7.20000,246.9
7.21667,246.6
7.23333,245.5
7.25000,245.5
7.26667,246.2
7.28333,247.2
7.30000,247.5
7.31667,246.9
7.33333,245.3
7.35000,245.6
7.36667,245.9
7.38333,247.1
7.40000,247.2
7.41667,246.9
7.43333,245.1
7.45000,245.1
7.46667,245.9
7.48333,246.0
7.50000,246.9
7.51667,247.6
7.53333,246.9
7.55000,244.9
7.56667,245.9
7.58333,245.9
7.60000,246.0
7.61667,247.3
7.63333,247.7
7.65000,246.9
7.66667,245.1
7.68333,246.2
7.70000,246.3
7.71667,246.8
7.73333,247.6
7.75000,247.7
7.76667,244.7
7.78333,245.8
7.80000,245.9
7.81667,245.9
7.83333,247.2
7.85000,247.6
7.86667,247.1
7.88333,245.0
7.90000,245.8
7.91667,246.6
7.93333,246.7
7.95000,246.9
7.96667,247.6
7.98333,244.6
8.00000,245.0
8.01667,246.2
8.03333,246.6
8.05000,246.6
8.06667,247.3
8.08333,246.8
8.10000,244.6
8.11667,245.4
8.13333,246.6
8.15000,246.8
8.16667,246.8
8.18333,247.5
8.20000,246.2
8.21667,245.1
8.23333,246.3
8.25000,246.6
8.26667,246.7
8.28333,247.2
8.30000,247.5
8.31667,245.1
8.33333,245.3
8.35000,246.2
8.36667,246.8
8.38333,246.7
8.40000,247.1
8.41667,247.2
8.43333,245.1
8.45000,245.3
8.46667,246.2
8.48333,247.3
8.50000,246.7
8.51667,246.9
8.53333,245.0
8.55000,245.8
8.56667,246.0
8.58333,246.9
8.60000,247.3
8.61667,246.9
8.63333,246.9
8.65000,245.3
8.66667,245.4
8.68333,246.6
8.70000,246.9
8.71667,247.5
8.73333,246.7
8.75000,245.0
8.76667,245.9
8.78333,246.0
8.80000,246.4
8.81667,247.3
8.83333,247.5
8.85000,246.0
8.86667,245.6
8.88333,245.9
8.90000,245.9
8.91667,246.8
8.93333,247.5
8.95000,247.1
8.96667,244.7
8.98333,245.8
9.00000,246.0
9.01667,246.4
9.03333,247.3
9.05000,247.3
9.06667,244.9
9.08333,245.8
9.10000,245.9
9.11667,246.2
9.13333,246.7
9.15000,247.3
9.16667,247.6
9.18333,244.6
9.20000,245.6
9.21667,246.2
9.23333,246.6
9.25000,246.7
9.26667,247.5
9.28333,244.7
9.30000,244.6
9.31667,245.6
9.33333,246.9
9.35000,246.6
9.36667,247.1
9.38333,247.5
9.40000,245.1
9.41667,245.4
9.43333,245.6
9.45000,246.9
9.46667,246.7
9.48333,247.3
9.50000,247.2
9.51667,245.1
9.53333,245.4
9.55000,246.3
9.56667,247.2
9.58333,246.8
9.60000,247.1
9.61667,246.3
9.63333,245.3
9.65000,245.4
9.66667,247.1
9.68333,246.8
9.70000,246.9
9.71667,245.3
9.73333,245.4
9.75000,245.3
9.76667,246.2
9.78333,247.1
9.80000,247.3
9.81667,246.9
9.83333,245.1
9.85000,245.6
9.86667,245.6
9.88333,246.9
9.90000,247.2
9.91667,246.9
9.93333,244.9
9.95000,245.0
9.96667,245.9
9.98333,245.6
10.00000,246.9
10.01667,247.5
10.03333,246.8
10.05000,244.9
10.06667,245.6
10.08333,245.9
10.10000,246.3
10.11667,247.2
10.13333,247.5
10.15000,246.8
10.16667,245.0
10.18333,245.9
10.20000,245.8
10.21667,246.8
10.23333,247.3
10.25000,247.5
10.26667,244.6
10.28333,245.8
10.30000,245.8
10.31667,246.2
10.33333,246.7
10.35000,246.9
10.36667,246.9
10.38333,244.6
10.40000,245.6
10.41667,245.9
10.43333,246.3
10.45000,246.8
10.46667,247.6
10.48333,244.6
10.50000,245.1
10.51667,245.5
10.53333,246.4
10.55000,246.6
10.56667,247.2
10.58333,247.5
10.60000,244.7
10.61667,245.4
10.63333,246.6
10.65000,246.9
10.66667,246.7
10.68333,247.5
10.70000,245.1
10.71667,245.0
10.73333,246.0
10.75000,246.4
10.76667,246.6
10.78333,246.7
10.80000,247.5
10.81667,245.0
10.83333,245.3
10.85000,246.2
10.86667,247.1
10.88333,246.7
10.90000,246.9
10.91667,245.0
10.93333,245.3
10.95000,245.4
10.96667,246.3
10.98333,247.2
11.00000,246.8
11.01667,247.1
11.03333,245.3
11.05000,245.6
11.06667,245.9
11.08333,247.1
11.10000,247.2
11.11667,247.2
11.13333,245.3
11.15000,245.5
11.16667,245.5
11.18333,246.3
11.20000,247.3
11.21667,247.5
11.23333,246.8
11.25000,245.0
11.26667,245.9
11.28333,246.0
11.30000,246.0
11.31667,247.2
11.33333,247.5
11.35000,246.9
11.36667,245.5
11.38333,245.8
11.40000,245.9
11.41667,246.3
11.43333,247.3
11.45000,247.1
11.46667,245.5
11.48333,245.6
11.50000,246.3
11.51667,245.8
11.53333,247.1
11.55000,247.3
11.56667,245.0
11.58333,245.6
11.60000,245.8
11.61667,246.2
11.63333,246.9
11.65000,247.2
11.66667,247.5
11.68333,244.6
11.70000,245.5
11.71667,246.3
11.73333,246.2
11.75000,246.7
11.76667,247.2
11.78333,247.3
11.80000,244.7
11.81667,245.6
11.83333,246.3
11.85000,246.4
11.86667,246.9
11.88333,247.3
11.90000,244.9
11.91667,245.3
11.93333,245.5
11.95000,246.7
11.96667,246.8
11.98333,246.7
12.00000,246.9
12.01667,245.0
12.03333,245.4
12.05000,246.3
12.06667,247.2
12.08333,246.7
12.10000,247.2
12.11667,245.0
12.13333,245.1
12.15000,245.4
12.16667,246.8
12.18333,246.8
12.20000,246.7
12.21667,245.3
12.23333,245.8
12.25000,245.3
12.26667,245.4
12.28333,247.2
12.30000,247.2
12.31667,246.8
12.33333,245.3
12.35000,245.9
12.36667,245.4
12.38333,246.2
12.40000,247.2
12.41667,247.5
12.43333,246.8
12.45000,245.0
12.46667,245.9
12.48333,246.0
12.50000,246.7
12.51667,247.2
12.53333,246.8
12.55000,244.7
12.56667,245.8
12.58333,245.8
12.60000,246.2
12.61667,247.3
12.63333,247.5
12.65000,246.9
12.66667,244.9
12.68333,245.9
12.70000,246.0
12.71667,246.6
12.73333,247.3
12.75000,247.5
12.76667,244.5
12.78333,244.7
12.80000,245.8
12.81667,246.2
12.83333,246.4
12.85000,247.2
12.86667,246.4
12.88333,244.7
12.90000,245.6
12.91667,246.3
12.93333,246.2
12.95000,246.9
12.96667,247.2
12.98333,246.0
13.00000,244.9
13.01667,245.9
13.03333,245.8
13.05000,246.4
13.06667,247.3
13.08333,245.1
13.10000,244.7
13.11667,245.5
13.13333,246.3
13.15000,246.9
13.16667,246.8
13.18333,247.3
13.20000,245.0
13.21667,245.0
13.23333,245.3
13.25000,246.3
13.26667,246.8
13.28333,247.1
13.30000,247.1
13.31667,245.0
13.33333,245.1
13.35000,245.9
13.36667,247.1
13.38333,246.9
13.40000,247.1
13.41667,247.2
13.43333,245.1
13.45000,245.3
13.46667,245.9
13.48333,247.2
13.50000,246.7
13.51667,247.1
13.53333,245.0
13.55000,245.6
13.56667,245.9
13.58333,246.9
13.60000,247.3
13.61667,246.9
13.63333,245.0
13.65000,245.5
13.66667,245.4
13.68333,246.4
13.70000,247.1
13.71667,247.5
13.73333,246.8
13.75000,244.9
13.76667,245.8
13.78333,245.6
13.80000,246.3
13.81667,247.2
13.83333,247.5
13.85000,245.6
13.86667,245.5
13.88333,246.2
13.90000,245.8
13.91667,247.1
13.93333,247.2
13.95000,246.8
13.96667,244.7
13.98333,245.8
14.00000,246.3
14.01667,246.3
14.03333,247.2
14.05000,247.5
14.06667,245.0
14.08333,245.5
14.10000,245.8
14.11667,246.2
14.13333,246.7
14.15000,247.1
14.16667,247.5
14.18333,244.6
14.20000,245.3
14.21667,245.5
14.23333,246.6
14.25000,246.7
14.26667,246.9
14.28333,244.7
14.30000,244.7
14.31667,245.4
14.33333,246.4
14.35000,246.4
14.36667,246.8
14.38333,247.5
14.40000,245.0
14.41667,244.7
14.43333,245.5
14.45000,246.7
14.46667,246.6
14.48333,247.3
14.50000,246.9
14.51667,245.0
14.53333,245.3
14.55000,246.4
14.56667,247.1
14.58333,246.6
14.60000,247.1
14.61667,245.0
14.63333,245.3
14.65000,245.3
14.66667,246.8
14.68333,246.8
14.70000,246.6
14.71667,245.3
14.73333,245.6
14.75000,245.3
14.76667,246.4
14.78333,246.9
14.80000,247.2
14.81667,246.9
14.83333,245.1
14.85000,245.8
14.86667,245.4
14.88333,246.7
14.90000,246.9
14.91667,246.7
14.93333,246.8
14.95000,244.9
14.96667,245.6
14.98333,246.2
15.00000,246.8

[LC Status Trace(Sample Cooler Temp.)]
Interval(msec),1000
# of Points,901
Start Time(min),0.000
End Time(min),15.000
Intensity Units,C
Intensity Multiplier,1
R.Time (min),Intensity
0.00000,17.26
0.01667,17.26
0.03333,17.26
0.05000,17.26
0.06667,17.26
0.08333,17.26
0.10000,17.27
0.11667,17.27
0.13333,17.27
0.15000,17.27
0.16667,17.27
0.18333,17.27
0.20000,17.27
0.21667,17.27
0.23333,17.27
0.25000,17.27
0.26667,17.26
0.28333,17.26
0.30000,17.26
0.31667,17.26
0.33333,17.26
0.35000,17.26
0.36667,17.26
0.38333,17.26
0.40000,17.26
0.41667,17.26
0.43333,17.26
0.45000,17.26
0.46667,17.26
0.48333,17.26
0.50000,17.26
0.51667,17.26
0.53333,17.26
0.55000,17.26
0.56667,17.26
0.58333,17.26
0.60000,17.28
0.61667,17.28
0.63333,17.28
0.65000,17.28
0.66667,17.28
0.68333,17.28
0.70000,17.28
0.71667,17.28
0.73333,17.28
0.75000,17.28
0.76667,17.24
0.78333,17.24
0.80000,17.24
0.81667,17.24
0.83333,17.24
0.85000,17.24
0.86667,17.24
0.88333,17.24
0.90000,17.24
0.91667,17.24
0.93333,17.27
0.95000,17.27
0.96667,17.27
0.98333,17.27
1.00000,17.27
1.01667,17.27
1.03333,17.27
1.05000,17.27
1.06667,17.27
1.08333,17.27
1.10000,17.24
1.11667,17.24
1.13333,17.24
1.15000,17.24
1.16667,17.24
1.18333,17.24
1.20000,17.24
1.21667,17.24
1.23333,17.24
1.25000,17.24
1.26667,17.27
1.28333,17.27
1.30000,17.27
1.31667,17.27
1.33333,17.27
1.35000,17.27
1.36667,17.27
1.38333,17.27
1.40000,17.27
1.41667,17.27
1.43333,17.26
1.45000,17.26
1.46667,17.26
1.48333,17.26
1.50000,17.26
1.51667,17.26
1.53333,17.26
1.55000,17.26
1.56667,17.26
1.58333,17.26
1.60000,17.25
1.61667,17.25
1.63333,17.25
1.65000,17.25
1.66667,17.25
1.68333,17.25
1.70000,17.25
1.71667,17.25
1.73333,17.25
1.75000,17.25
1.76667,17.26
1.78333,17.26
1.80000,17.26
1.81667,17.26
1.83333,17.26
1.85000,17.26
1.86667,17.26
1.88333,17.26
1.90000,17.26
1.91667,17.26
1.93333,17.28
1.95000,17.28
1.96667,17.28
1.98333,17.28
2.00000,17.28
2.01667,17.28
2.03333,17.28
2.05000,17.28
2.06667,17.28
2.08333,17.28
2.10000,17.26
2.11667,17.26
2.13333,17.26
2.15000,17.26
2.16667,17.26
2.18333,17.26
2.20000,17.26
2.21667,17.26
2.23333,17.26
2.25000,17.26
2.26667,17.26
2.28333,17.26
2.30000,17.26
2.31667,17.26
2.33333,17.26
2.35000,17.26
2.36667,17.26
2.38333,17.26
2.40000,17.26
2.41667,17.26
2.43333,17.27
2.45000,17.27
2.46667,17.27
2.48333,17.27
2.50000,17.27
2.51667,17.27
2.53333,17.27
2.55000,17.27
2.56667,17.27
2.58333,17.27
2.60000,17.27
2.61667,17.27
2.63333,17.27
2.65000,17.27
2.66667,17.27
2.68333,17.27
2.70000,17.27
2.71667,17.27
2.73333,17.27
2.75000,17.27
2.76667,17.27
2.78333,17.27
2.80000,17.27
2.81667,17.27
2.83333,17.27
2.85000,17.27
2.86667,17.27
2.88333,17.27
2.90000,17.27
2.91667,17.27
2.93333,17.28
2.95000,17.28
2.96667,17.28
2.98333,17.28
3.00000,17.28
3.01667,17.28
3.03333,17.28
3.05000,17.28
3.06667,17.28
3.08333,17.28
3.10000,17.26
3.11667,17.26
3.13333,17.26
3.15000,17.26
3.16667,17.26
3.18333,17.26
3.20000,17.26
3.21667,17.26
3.23333,17.26
3.25000,17.26
3.26667,17.26
3.28333,17.26
3.30000,17.26
3.31667,17.26
3.33333,17.26
3.35000,17.26
3.36667,17.26
3.38333,17.26
3.40000,17.26
3.41667,17.26
3.43333,17.24
3.45000,17.24
3.46667,17.24
3.48333,17.24
3.50000,17.24
3.51667,17.24
3.53333,17.24
3.55000,17.24
3.56667,17.24
3.58333,17.24
3.60000,17.26
3.61667,17.26
3.63333,17.26
3.65000,17.26
3.66667,17.26
3.68333,17.26
3.70000,17.26
3.71667,17.26
3.73333,17.26
3.75000,17.26
3.76667,17.24
3.78333,17.24
3.80000,17.24
3.81667,17.24
3.83333,17.24
3.85000,17.24
3.86667,17.24
3.88333,17.24
3.90000,17.24
3.91667,17.24
3.93333,17.24
3.95000,17.24
3.96667,17.24
3.98333,17.24
4.00000,17.24
4.01667,17.24
4.03333,17.24
4.05000,17.24
4.06667,17.24
4.08333,17.24
4.10000,17.26
4.11667,17.26
4.13333,17.26
4.15000,17.26
4.16667,17.26
4.18333,17.26
4.20000,17.26
4.21667,17.26
4.23333,17.26
4.25000,17.26
4.26667,17.26
4.28333,17.26
4.30000,17.26
4.31667,17.26
4.33333,17.26
4.35000,17.26
4.36667,17.26
4.38333,17.26
4.40000,17.26
4.41667,17.26
4.43333,17.26
4.45000,17.26
4.46667,17.26
4.48333,17.26
4.50000,17.26
4.51667,17.26
4.53333,17.26
4.55000,17.26
4.56667,17.26
4.58333,17.26
4.60000,17.24
4.61667,17.24
4.63333,17.24
4.65000,17.24
4.66667,17.24
4.68333,17.24
4.70000,17.24
4.71667,17.24
4.73333,17.24
4.75000,17.27
4.76667,17.27
4.78333,17.27
4.80000,17.27
4.81667,17.27
4.83333,17.27
4.85000,17.27
4.86667,17.27
4.88333,17.27
4.90000,17.27
4.91667,17.27
4.93333,17.25
4.95000,17.25
4.96667,17.25
4.98333,17.25
5.00000,17.25
5.01667,17.25
5.03333,17.25
5.05000,17.25
5.06667,17.25
5.08333,17.24
5.10000,17.24
5.11667,17.24
5.13333,17.24
5.15000,17.24
5.16667,17.24
5.18333,17.24
5.20000,17.24
5.21667,17.24
5.23333,17.24
5.25000,17.24
5.26667,17.24
5.28333,17.24
5.30000,17.24
5.31667,17.24
5.33333,17.24
5.35000,17.24
5.36667,17.24
5.38333,17.24
5.40000,17.24
5.41667,17.24
5.43333,17.21
5.45000,17.21
5.46667,17.21
5.48333,17.21
5.50000,17.21
5.51667,17.21
5.53333,17.21
5.55000,17.21
5.56667,17.21
5.58333,17.21
5.60000,17.26
5.61667,17.26
5.63333,17.26
5.65000,17.26
5.66667,17.26
5.68333,17.26
5.70000,17.26
5.71667,17.26
5.73333,17.26
5.75000,17.23
5.76667,17.23
5.78333,17.23
5.80000,17.23
5.81667,17.23
5.83333,17.23
5.85000,17.23
5.86667,17.23
5.88333,17.23
5.90000,17.23
5.91667,17.23
5.93333,17.25
5.95000,17.25
5.96667,17.25
5.98333,17.25
6.00000,17.25
6.01667,17.25
6.03333,17.25
6.05000,17.25
6.06667,17.25
6.08333,17.25
6.10000,17.25
6.11667,17.25
6.13333,17.25
6.15000,17.25
6.16667,17.25
6.18333,17.25
6.20000,17.25
6.21667,17.25
6.23333,17.25
6.25000,17.26
6.26667,17.26
6.28333,17.26
6.30000,17.26
6.31667,17.26
6.33333,17.26
6.35000,17.26
6.36667,17.26
6.38333,17.26
6.40000,17.26
6.41667,17.26
6.43333,17.25
6.45000,17.25
6.46667,17.25
6.48333,17.25
6.50000,17.25
6.51667,17.25
6.53333,17.25
6.55000,17.25
6.56667,17.25
6.58333,17.21
6.60000,17.21
6.61667,17.21
6.63333,17.21
6.65000,17.21
6.66667,17.21
6.68333,17.21
6.70000,17.21
6.71667,17.21
6.73333,17.21
6.75000,17.24
6.76667,17.24
6.78333,17.24
6.80000,17.24
6.81667,17.24
6.83333,17.24
6.85000,17.24
6.86667,17.24
6.88333,17.24
6.90000,17.24
6.91667,17.21
6.93333,17.21
6.95000,17.21
6.96667,17.21
6.98333,17.21
7.00000,17.21
7.01667,17.21
7.03333,17.21
7.05000,17.21
7.06667,17.21
7.08333,17.23
7.10000,17.23
7.11667,17.23
7.13333,17.23
7.15000,17.23
7.16667,17.23
7.18333,17.23
7.20000,17.23
7.21667,17.23
7.23333,17.23
7.25000,17.24
7.26667,17.24
7.28333,17.24
7.30000,17.24
7.31667,17.24
7.33333,17.24
7.35000,17.24
7.36667,17.24
7.38333,17.24
7.40000,17.24
7.41667,17.24
7.43333,17.21
7.45000,17.21
7.46667,17.21
7.48333,17.21
7.50000,17.21
7.51667,17.21
7.53333,17.21
7.55000,17.21
7.56667,17.21
7.58333,17.24
7.60000,17.24
7.61667,17.24
7.63333,17.24
7.65000,17.24
7.66667,17.24
7.68333,17.24
7.70000,17.24
7.71667,17.24
7.73333,17.24
7.75000,17.21
7.76667,17.21
7.78333,17.21
7.80000,17.21
7.81667,17.21
7.83333,17.21
7.85000,17.21
7.86667,17.21
7.88333,17.21
7.90000,17.21
7.91667,17.24
7.93333,17.24
7.95000,17.24
7.96667,17.24
7.98333,17.24
8.00000,17.24
8.01667,17.24
8.03333,17.24
8.05000,17.24
8.06667,17.24
8.08333,17.20
8.10000,17.20
8.11667,17.20
8.13333,17.20
8.15000,17.20
8.16667,17.20
8.18333,17.20
8.20000,17.20
8.21667,17.20
8.23333,17.20
8.25000,17.23
8.26667,17.23
8.28333,17.23
8.30000,17.23
8.31667,17.23
8.33333,17.23
8.35000,17.23
8.36667,17.23
8.38333,17.23
8.40000,17.23
8.41667,17.23
8.43333,17.21
8.45000,17.21
8.46667,17.21
8.48333,17.21
8.50000,17.21
8.51667,17.21
8.53333,17.21
8.55000,17.21
8.56667,17.21
8.58333,17.20
8.60000,17.20
8.61667,17.20
8.63333,17.20
8.65000,17.20
8.66667,17.20
8.68333,17.20
8.70000,17.20
8.71667,17.20
8.73333,17.20
8.75000,17.21
8.76667,17.21
8.78333,17.21
8.80000,17.21
8.81667,17.21
8.83333,17.21
8.85000,17.21
8.86667,17.21
8.88333,17.21
8.90000,17.21
8.91667,17.20
8.93333,17.20
8.95000,17.20
8.96667,17.20
8.98333,17.20
9.00000,17.20
9.01667,17.20
9.03333,17.20
9.05000,17.20
9.06667,17.20
9.08333,17.23
9.10000,17.23
9.11667,17.23
9.13333,17.23
9.15000,17.23
9.16667,17.23
9.18333,17.23
9.20000,17.23
9.21667,17.23
9.23333,17.23
9.25000,17.20
9.26667,17.20
9.28333,17.20
9.30000,17.20
9.31667,17.20
9.33333,17.20
9.35000,17.20
9.36667,17.20
9.38333,17.20
9.40000,17.20
9.41667,17.21
9.43333,17.21
9.45000,17.21
9.46667,17.21
9.48333,17.21
9.50000,17.21
9.51667,17.21
9.53333,17.21
9.55000,17.21
9.56667,17.21
9.58333,17.23
9.60000,17.23
9.61667,17.23
9.63333,17.23
9.65000,17.23
9.66667,17.23
9.68333,17.23
9.70000,17.23
9.71667,17.23
9.73333,17.23
9.75000,17.21
9.76667,17.21
9.78333,17.21
9.80000,17.21
9.81667,17.21
9.83333,17.21
9.85000,17.21
9.86667,17.21
9.88333,17.21
9.90000,17.21
9.91667,17.23
9.93333,17.23
9.95000,17.23
9.96667,17.23
9.98333,17.23
10.00000,17.23
10.01667,17.23
10.03333,17.23
10.05000,17.23
10.06667,17.23
10.08333,17.19
10.10000,17.19
10.11667,17.19
10.13333,17.19
10.15000,17.19
10.16667,17.19
10.18333,17.19
10.20000,17.19
10.21667,17.19
10.23333,17.19
10.25000,17.23
10.26667,17.23
10.28333,17.23
10.30000,17.23
10.31667,17.23
10.33333,17.23
10.35000,17.23
10.36667,17.23
10.38333,17.23
10.40000,17.23
10.41667,17.20
10.43333,17.20
10.45000,17.20
10.46667,17.20
10.48333,17.20
10.50000,17.20
10.51667,17.20
10.53333,17.20
10.55000,17.20
10.56667,17.20
10.58333,17.21
10.60000,17.21
10.61667,17.21
10.63333,17.21
10.65000,17.21
10.66667,17.21
10.68333,17.21
10.70000,17.21
10.71667,17.21
10.73333,17.21
10.75000,17.19
10.76667,17.19
10.78333,17.19
10.80000,17.19
10.81667,17.19
10.83333,17.19
10.85000,17.19
10.86667,17.19
10.88333,17.19
10.90000,17.19
10.91667,17.20
10.93333,17.20
10.95000,17.20
10.96667,17.20
10.98333,17.20
11.00000,17.20
11.01667,17.20
11.03333,17.20
11.05000,17.20
11.06667,17.20
11.08333,17.23
11.10000,17.23
11.11667,17.23
11.13333,17.23
11.15000,17.23
11.16667,17.23
11.18333,17.23
11.20000,17.23
11.21667,17.23
11.23333,17.23
11.25000,17.23
11.26667,17.23
11.28333,17.23
11.30000,17.23
11.31667,17.23
11.33333,17.23
11.35000,17.23
11.36667,17.23
11.38333,17.23
11.40000,17.23
11.41667,17.23
11.43333,17.23
11.45000,17.23
11.46667,17.23
11.48333,17.23
11.50000,17.23
11.51667,17.23
11.53333,17.23
11.55000,17.23
11.56667,17.23
11.58333,17.20
11.60000,17.20
11.61667,17.20
11.63333,17.20
11.65000,17.20
11.66667,17.20
11.68333,17.20
11.70000,17.20
11.71667,17.20
11.73333,17.20
11.75000,17.21
11.76667,17.21
11.78333,17.21
11.80000,17.21
11.81667,17.21
11.83333,17.21
11.85000,17.21
11.86667,17.21
11.88333,17.21
11.90000,17.21
11.91667,17.21
11.93333,17.21
11.95000,17.21
11.96667,17.21
11.98333,17.21
12.00000,17.21
12.01667,17.21
12.03333,17.21
12.05000,17.21
12.06667,17.21
12.08333,17.20
12.10000,17.20
12.11667,17.20
12.13333,17.20
12.15000,17.20
12.16667,17.20
12.18333,17.20
12.20000,17.20
12.21667,17.20
12.23333,17.20
12.25000,17.21
12.26667,17.21
12.28333,17.21
12.30000,17.21
12.31667,17.21
12.33333,17.21
12.35000,17.21
12.36667,17.21
12.38333,17.21
12.40000,17.21
12.41667,17.20
12.43333,17.20
12.45000,17.20
12.46667,17.20
12.48333,17.20
12.50000,17.20
12.51667,17.20
12.53333,17.20
12.55000,17.20
12.56667,17.20
12.58333,17.21
12.60000,17.21
12.61667,17.21
12.63333,17.21
12.65000,17.21
12.66667,17.21
12.68333,17.21
12.70000,17.21
12.71667,17.21
12.73333,17.21
12.75000,17.21
12.76667,17.21
12.78333,17.21
12.80000,17.21
12.81667,17.21
12.83333,17.21
12.85000,17.21
12.86667,17.21
12.88333,17.21
12.90000,17.21
12.91667,17.21
12.93333,17.21
12.95000,17.21
12.96667,17.21
12.98333,17.21
13.00000,17.21
13.01667,17.21
13.03333,17.21
13.05000,17.21
13.06667,17.21
13.08333,17.24
13.10000,17.24
13.11667,17.24
13.13333,17.24
13.15000,17.24
13.16667,17.24
13.18333,17.24
13.20000,17.24
13.21667,17.24
13.23333,17.24
13.25000,17.24
13.26667,17.24
13.28333,17.24
13.30000,17.24
13.31667,17.24
13.33333,17.24
13.35000,17.24
13.36667,17.24
13.38333,17.24
13.40000,17.24
13.41667,17.25
13.43333,17.25
13.45000,17.25
13.46667,17.25
13.48333,17.25
13.50000,17.25
13.51667,17.25
13.53333,17.25
13.55000,17.25
13.56667,17.25
13.58333,17.24
13.60000,17.24
13.61667,17.24
13.63333,17.24
13.65000,17.24
13.66667,17.24
13.68333,17.24
13.70000,17.24
13.71667,17.24
13.73333,17.24
13.75000,17.24
13.76667,17.24
13.78333,17.24
13.80000,17.24
13.81667,17.24
13.83333,17.24
13.85000,17.24
13.86667,17.24
13.88333,17.24
13.90000,17.24
13.91667,17.23
13.93333,17.23
13.95000,17.23
13.96667,17.23
13.98333,17.23
14.00000,17.23
14.01667,17.23
14.03333,17.23
14.05000,17.23
14.06667,17.23
14.08333,17.21
14.10000,17.21
14.11667,17.21
14.13333,17.21
14.15000,17.21
14.16667,17.21
14.18333,17.21
14.20000,17.21
14.21667,17.21
14.23333,17.21
14.25000,17.21
14.26667,17.21
14.28333,17.21
14.30000,17.21
14.31667,17.21
14.33333,17.21
14.35000,17.21
14.36667,17.21
14.38333,17.21
14.40000,17.21
14.41667,17.21
14.43333,17.21
14.45000,17.21
14.46667,17.21
14.48333,17.21
14.50000,17.21
14.51667,17.21
14.53333,17.21
14.55000,17.21
14.56667,17.21
14.58333,17.26
14.60000,17.26
14.61667,17.26
14.63333,17.26
14.65000,17.26
14.66667,17.26
14.68333,17.26
14.70000,17.26
14.71667,17.26
14.73333,17.26
14.75000,17.24
14.76667,17.24
14.78333,17.24
14.80000,17.24
14.81667,17.24
14.83333,17.24
14.85000,17.24
14.86667,17.24
14.88333,17.24
14.90000,17.24
14.91667,17.26
14.93333,17.26
14.95000,17.26
14.96667,17.26
14.98333,17.26
15.00000,17.26

[Fraction Collection Report]
# of Fractions,0

