[Header]
Application Name,LCsolution
Version,1.25
Data File Name,C:\LabSolutions\Data\aldolaze\Martina\aldolna adicija\batch_21022012\EtAc\7.lcd
Output Date,12.12.2023.
Output Time,11:19:36

[File Information]
Type,Data File
Generated,21.2.2012. 12:30:07
Generated by,Admin
Modified,21.2.2012. 12:46:09
Modified by,Admin

[Sample Information]
Operator Name,Admin
Acquired,21.2.2012. 12:30:32
Sample Type,0:Unknown
Level,0
Sample Name,7
Sample ID,
ISTD Amount 1,1
ISTD Amount 2,1
ISTD Amount 3,1
ISTD Amount 4,1
ISTD Amount 5,1
ISTD Amount 6,1
ISTD Amount 7,1
ISTD Amount 8,1
ISTD Amount 9,1
ISTD Amount 10,1
ISTD Amount 11,1
ISTD Amount 12,1
ISTD Amount 13,1
ISTD Amount 14,1
ISTD Amount 15,1
ISTD Amount 16,1
ISTD Amount 17,1
ISTD Amount 18,1
ISTD Amount 19,1
ISTD Amount 20,1
ISTD Amount 21,1
ISTD Amount 22,1
ISTD Amount 23,1
ISTD Amount 24,1
ISTD Amount 25,1
ISTD Amount 26,1
ISTD Amount 27,1
ISTD Amount 28,1
ISTD Amount 29,1
ISTD Amount 30,1
ISTD Amount 31,1
ISTD Amount 32,1
Sample Amount,1
Dilution Factor,1
Vial#,5
Injection Volume,20

[Original Files]
Data File,C:\LabSolutions\Data\aldolaze\Martina\aldolna adicija\batch_21022012\EtAc\7.lcd
Method File,C:\LabSolutions\Data\aldolaze\metoda3_2eluenta.lcm
Batch File,C:\LabSolutions\Data\aldolaze\Martina\baždarci\aldol-aldehid-01022012\lista.lcb
Report Format File,C:\LabSolutions\LCsolution\System\Default.lcr
Tuning File,

[File Description]


[Configuration]
# of Detectors,2
Detector ID,Detector A,AD2
Detector Name,Detector A,AD2
# of Channels,1,1

[Peak Table(Detector A-Ch1)]
# of Peaks,12
Peak#,R.Time,I.Time,F.Time,Area,Height,A/H,Conc.,Mark,ID#,Name,k',Plate #,Plate Ht.,Tailing,Resolution,Sep.Factor,Conc. %,Norm Conc.
1,0.526,0.458,0.767,1322,82,16.0920,0.0000,   ,,,0.000,49,3038.731,2.281,0.000,0.000,0.0000,0.0000
2,2.686,2.667,2.867,5140,406,12.6650,0.0000,   ,,,4.104,3549,42.260,4.896,8.999,0.000,0.0000,0.0000
3,3.185,2.917,3.467,59994,2723,22.0310,0.0000,   ,,,5.050,424,353.594,0.000,1.248,1.231,0.0000,0.0000
4,4.047,3.467,4.950,12707065,756045,16.8070,0.0000, V ,1,RT4.047,6.688,1699,88.264,1.890,1.705,1.324,0.0000,0.0000
5,5.268,4.950,6.808,3277277,127719,25.6600,0.0000, V ,,,9.008,1594,94.088,0.000,2.653,1.347,0.0000,0.0000
6,7.190,6.808,7.642,1001278,39373,25.4300,0.0000, V ,,,12.659,2052,73.103,0.000,3.306,1.405,0.0000,0.0000
7,8.070,7.642,9.033,1360749,33114,41.0920,0.0000, V ,2,RT8.070,14.332,988,151.868,0.000,1.060,1.132,0.0000,0.0000
8,9.418,9.033,10.608,532980,13298,40.0790,0.0000, V ,,,16.893,1840,81.507,0.000,1.415,1.179,0.0000,0.0000
9,11.009,10.608,11.325,68622,1725,39.7700,0.0000, V ,,,19.914,252,595.636,0.000,0.871,1.179,0.0000,0.0000
10,11.767,11.325,12.550,233195,5496,42.4310,0.0000, V ,,,21.354,2249,66.696,0.000,0.402,1.072,0.0000,0.0000
11,12.987,12.550,13.142,50799,1507,33.7130,0.0000, V ,,,23.673,11,13924.791,0.000,0.145,1.109,0.0000,0.0000
12,13.254,13.142,14.367,58150,1433,40.5880,0.0000, V ,,,24.179,14,10487.711,0.000,0.018,1.021,0.0000,0.0000

[Peak Table(AD2)]
# of Peaks,0

[Peak Table(PDA-Ch1)]
# of Peaks,0

[Compound Results(Detector A)]
# of IDs,2
ID#,Name,R.Time,Area,Height,Conc.,Curve,3rd,2nd,1st,Constant,Conc. %,Norm Conc.
1,RT4.047,4.047,12707065,756045,0.0000,Linear,0.0,0.0,0.0,0.0,0.0000,0.0000
2,RT8.070,8.070,1360749,33114,0.0000,Linear,0.0,0.0,0.0,0.0,0.0000,0.0000

[Compound Results(AD2)]
# of IDs,0

[Compound Results(PDA)]
# of IDs,0

[Group Results(Detector A)]
# of Groups,0

[Group Results(AD2)]
# of Groups,0

[Group Results(PDA)]
# of Groups,0

[LC Chromatogram(Detector A-Ch1)]
Interval(msec),500
# of Points,1801
Start Time(min),0.000
End Time(min),15.000
Intensity Units,mV
Intensity Multiplier,0.001
Wavelength(nm),215
R.Time (min),Intensity
0.00000,-113
0.00833,-113
0.01667,-31
0.02500,1
0.03333,1
0.04167,1
0.05000,-3
0.05833,-6
0.06667,-8
0.07500,-12
0.08333,-19
0.09167,-24
0.10000,-28
0.10833,-36
0.11667,-45
0.12500,-56
0.13333,-67
0.14167,-76
0.15000,-86
0.15833,-98
0.16667,-111
0.17500,-126
0.18333,-140
0.19167,-153
0.20000,-165
0.20833,-182
0.21667,-201
0.22500,-219
0.23333,-237
0.24167,-253
0.25000,-269
0.25833,-287
0.26667,-306
0.27500,-322
0.28333,-339
0.29167,-358
0.30000,-373
0.30833,-391
0.31667,-408
0.32500,-425
0.33333,-440
0.34167,-454
0.35000,-466
0.35833,-478
0.36667,-489
0.37500,-498
0.38333,-507
0.39167,-517
0.40000,-525
0.40833,-533
0.41667,-538
0.42500,-539
0.43333,-544
0.44167,-547
0.45000,-547
0.45833,-547
0.46667,-546
0.47500,-542
0.48333,-537
0.49167,-534
0.50000,-531
0.50833,-532
0.51667,-533
0.52500,-531
0.53333,-531
0.54167,-534
0.55000,-535
0.55833,-537
0.56667,-538
0.57500,-540
0.58333,-545
0.59167,-548
0.60000,-552
0.60833,-561
0.61667,-572
0.62500,-584
0.63333,-596
0.64167,-610
0.65000,-624
0.65833,-640
0.66667,-656
0.67500,-672
0.68333,-688
0.69167,-705
0.70000,-722
0.70833,-739
0.71667,-756
0.72500,-771
0.73333,-787
0.74167,-805
0.75000,-822
0.75833,-837
0.76667,-847
0.77500,-854
0.78333,-861
0.79167,-868
0.80000,-873
0.80833,-877
0.81667,-881
0.82500,-884
0.83333,-887
0.84167,-891
0.85000,-897
0.85833,-898
0.86667,-897
0.87500,-896
0.88333,-894
0.89167,-892
0.90000,-890
0.90833,-890
0.91667,-891
0.92500,-892
0.93333,-895
0.94167,-896
0.95000,-896
0.95833,-899
0.96667,-904
0.97500,-907
0.98333,-910
0.99167,-911
1.00000,-913
1.00833,-915
1.01667,-922
1.02500,-929
1.03333,-935
1.04167,-939
1.05000,-944
1.05833,-950
1.06667,-958
1.07500,-964
1.08333,-967
1.09167,-969
1.10000,-971
1.10833,-974
1.11667,-977
1.12500,-979
1.13333,-981
1.14167,-984
1.15000,-985
1.15833,-990
1.16667,-995
1.17500,-998
1.18333,-1003
1.19167,-1009
1.20000,-1015
1.20833,-1022
1.21667,-1028
1.22500,-1033
1.23333,-1040
1.24167,-1047
1.25000,-1053
1.25833,-1060
1.26667,-1069
1.27500,-1077
1.28333,-1085
1.29167,-1091
1.30000,-1099
1.30833,-1107
1.31667,-1114
1.32500,-1118
1.33333,-1119
1.34167,-1121
1.35000,-1121
1.35833,-1114
1.36667,-1101
1.37500,-1080
1.38333,-1055
1.39167,-1026
1.40000,-1001
1.40833,-995
1.41667,-1042
1.42500,-1185
1.43333,-1455
1.44167,-1860
1.45000,-2365
1.45833,-2889
1.46667,-3305
1.47500,-3448
1.48333,-3183
1.49167,-2469
1.50000,-1375
1.50833,-73
1.51667,1224
1.52500,2351
1.53333,3594
1.54167,5991
1.55000,10318
1.55833,16846
1.56667,26444
1.57500,40011
1.58333,57075
1.59167,76004
1.60000,94958
1.60833,112744
1.61667,129325
1.62500,145566
1.63333,161810
1.64167,176958
1.65000,189246
1.65833,197716
1.66667,202611
1.67500,204447
1.68333,203476
1.69167,199796
1.70000,193359
1.70833,184087
1.71667,172101
1.72500,157835
1.73333,141911
1.74167,124912
1.75000,107080
1.75833,88288
1.76667,68379
1.77500,47403
1.78333,25493
1.79167,2909
1.80000,-19805
1.80833,-42459
1.81667,-66406
1.82500,-93285
1.83333,-122427
1.84167,-151240
1.85000,-176928
1.85833,-197762
1.86667,-213330
1.87500,-224105
1.88333,-230932
1.89167,-234670
1.90000,-236044
1.90833,-235715
1.91667,-234414
1.92500,-232905
1.93333,-231715
1.94167,-230955
1.95000,-230388
1.95833,-229648
1.96667,-228448
1.97500,-226720
1.98333,-224574
1.99167,-222213
2.00000,-219892
2.00833,-217860
2.01667,-216278
2.02500,-215149
2.03333,-214329
2.04167,-213597
2.05000,-212745
2.05833,-211617
2.06667,-210126
2.07500,-208213
2.08333,-205835
2.09167,-202953
2.10000,-199532
2.10833,-195542
2.11667,-190954
2.12500,-185743
2.13333,-179899
2.14167,-173390
2.15000,-166174
2.15833,-158176
2.16667,-149214
2.17500,-138968
2.18333,-126843
2.19167,-111131
2.20000,-87771
2.20833,-51499
2.21667,1088
2.22500,69367
2.23333,146907
2.24167,220929
2.25000,278501
2.25833,314333
2.26667,332452
2.27500,345259
2.28333,369583
2.29167,416730
2.30000,486172
2.30833,566804
2.31667,639343
2.32500,681967
2.33333,681881
2.34167,640218
2.35000,567818
2.35833,478559
2.36667,384643
2.37500,295593
2.38333,218133
2.39167,155610
2.40000,108322
2.40833,74482
2.41667,51315
2.42500,35944
2.43333,25922
2.44167,19399
2.45000,15079
2.45833,12120
2.46667,9988
2.47500,8365
2.48333,7066
2.49167,5982
2.50000,5053
2.50833,4248
2.51667,3546
2.52500,2941
2.53333,2428
2.54167,2006
2.55000,1672
2.55833,1421
2.56667,1246
2.57500,1135
2.58333,1077
2.59167,1060
2.60000,1074
2.60833,1113
2.61667,1169
2.62500,1238
2.63333,1314
2.64167,1395
2.65000,1473
2.65833,1544
2.66667,1604
2.67500,1650
2.68333,1677
2.69167,1685
2.70000,1672
2.70833,1636
2.71667,1575
2.72500,1491
2.73333,1387
2.74167,1261
2.75000,1113
2.75833,946
2.76667,763
2.77500,567
2.78333,354
2.79167,132
2.80000,-96
2.80833,-326
2.81667,-556
2.82500,-781
2.83333,-998
2.84167,-1199
2.85000,-1381
2.85833,-1543
2.86667,-1682
2.87500,-1800
2.88333,-1897
2.89167,-1969
2.90000,-2019
2.90833,-2049
2.91667,-2057
2.92500,-2044
2.93333,-2010
2.94167,-1955
2.95000,-1879
2.95833,-1788
2.96667,-1680
2.97500,-1559
2.98333,-1428
2.99167,-1289
3.00000,-1145
3.00833,-1004
3.01667,-866
3.02500,-728
3.03333,-592
3.04167,-458
3.05000,-326
3.05833,-202
3.06667,-83
3.07500,30
3.08333,137
3.09167,240
3.10000,335
3.10833,417
3.11667,490
3.12500,547
3.13333,591
3.14167,628
3.15000,657
3.15833,679
3.16667,697
3.17500,712
3.18333,719
3.19167,720
3.20000,715
3.20833,701
3.21667,676
3.22500,644
3.23333,609
3.24167,568
3.25000,527
3.25833,488
3.26667,450
3.27500,415
3.28333,385
3.29167,357
3.30000,330
3.30833,302
3.31667,267
3.32500,226
3.33333,174
3.34167,114
3.35000,47
3.35833,-27
3.36667,-106
3.37500,-186
3.38333,-267
3.39167,-346
3.40000,-420
3.40833,-492
3.41667,-558
3.42500,-615
3.43333,-665
3.44167,-709
3.45000,-742
3.45833,-765
3.46667,-773
3.47500,-765
3.48333,-743
3.49167,-708
3.50000,-659
3.50833,-600
3.51667,-535
3.52500,-463
3.53333,-386
3.54167,-308
3.55000,-229
3.55833,-148
3.56667,-67
3.57500,18
3.58333,105
3.59167,195
3.60000,291
3.60833,392
3.61667,497
3.62500,605
3.63333,711
3.64167,818
3.65000,922
3.65833,1016
3.66667,1103
3.67500,1184
3.68333,1257
3.69167,1319
3.70000,1371
3.70833,1412
3.71667,1442
3.72500,1460
3.73333,1468
3.74167,1465
3.75000,1458
3.75833,1450
3.76667,1454
3.77500,1485
3.78333,1568
3.79167,1742
3.80000,2060
3.80833,2608
3.81667,3502
3.82500,4898
3.83333,7009
3.84167,10116
3.85000,14568
3.85833,20822
3.86667,29437
3.87500,41062
3.88333,56475
3.89167,76463
3.90000,101689
3.90833,132749
3.91667,169965
3.92500,213198
3.93333,261878
3.94167,314850
3.95000,370447
3.95833,426864
3.96667,482165
3.97500,534459
3.98333,582271
3.99167,624564
4.00000,660725
4.00833,690559
4.01667,714196
4.02500,731961
4.03333,744265
4.04167,751540
4.05000,754217
4.05833,752600
4.06667,746834
4.07500,737055
4.08333,723370
4.09167,705888
4.10000,684846
4.10833,660540
4.11667,633393
4.12500,603939
4.13333,572756
4.14167,540432
4.15000,507613
4.15833,474906
4.16667,442775
4.17500,411612
4.18333,381682
4.19167,353180
4.20000,326299
4.20833,301148
4.21667,277758
4.22500,256151
4.23333,236276
4.24167,218028
4.25000,201336
4.25833,186129
4.26667,172314
4.27500,159806
4.28333,148505
4.29167,138288
4.30000,129056
4.30833,120721
4.31667,113192
4.32500,106399
4.33333,100272
4.34167,94717
4.35000,89662
4.35833,85053
4.36667,80833
4.37500,76956
4.38333,73390
4.39167,70095
4.40000,67035
4.40833,64182
4.41667,61507
4.42500,58997
4.43333,56641
4.44167,54419
4.45000,52320
4.45833,50335
4.46667,48449
4.47500,46651
4.48333,44938
4.49167,43309
4.50000,41762
4.50833,40290
4.51667,38889
4.52500,37554
4.53333,36282
4.54167,35072
4.55000,33923
4.55833,32833
4.56667,31798
4.57500,30812
4.58333,29878
4.59167,28990
4.60000,28150
4.60833,27357
4.61667,26608
4.62500,25901
4.63333,25234
4.64167,24603
4.65000,24004
4.65833,23441
4.66667,22908
4.67500,22400
4.68333,21914
4.69167,21447
4.70000,20994
4.70833,20555
4.71667,20128
4.72500,19711
4.73333,19300
4.74167,18896
4.75000,18494
4.75833,18098
4.76667,17709
4.77500,17326
4.78333,16950
4.79167,16583
4.80000,16223
4.80833,15868
4.81667,15522
4.82500,15186
4.83333,14860
4.84167,14545
4.85000,14243
4.85833,13951
4.86667,13670
4.87500,13403
4.88333,13149
4.89167,12912
4.90000,12694
4.90833,12491
4.91667,12309
4.92500,12151
4.93333,12023
4.94167,11931
4.95000,11884
4.95833,11895
4.96667,11971
4.97500,12131
4.98333,12395
4.99167,12788
5.00000,13345
5.00833,14106
5.01667,15117
5.02500,16421
5.03333,18057
5.04167,20064
5.05000,22462
5.05833,25252
5.06667,28411
5.07500,31903
5.08333,35659
5.09167,39594
5.10000,43626
5.10833,47679
5.11667,51700
5.12500,55682
5.13333,59645
5.14167,63648
5.15000,67792
5.15833,72179
5.16667,76896
5.17500,81996
5.18333,87455
5.19167,93170
5.20000,98971
5.20833,104638
5.21667,109933
5.22500,114643
5.23333,118604
5.24167,121722
5.25000,123967
5.25833,125379
5.26667,126062
5.27500,126139
5.28333,125736
5.29167,124958
5.30000,123866
5.30833,122492
5.31667,120828
5.32500,118846
5.33333,116523
5.34167,113847
5.35000,110811
5.35833,107437
5.36667,103771
5.37500,99851
5.38333,95728
5.39167,91471
5.40000,87137
5.40833,82790
5.41667,78485
5.42500,74259
5.43333,70141
5.44167,66163
5.45000,62349
5.45833,58715
5.46667,55276
5.47500,52035
5.48333,48994
5.49167,46150
5.50000,43496
5.50833,41029
5.51667,38746
5.52500,36634
5.53333,34686
5.54167,32885
5.55000,31220
5.55833,29678
5.56667,28251
5.57500,26930
5.58333,25706
5.59167,24571
5.60000,23516
5.60833,22530
5.61667,21611
5.62500,20755
5.63333,19958
5.64167,19215
5.65000,18519
5.65833,17868
5.66667,17259
5.67500,16690
5.68333,16153
5.69167,15648
5.70000,15176
5.70833,14733
5.71667,14316
5.72500,13925
5.73333,13560
5.74167,13220
5.75000,12905
5.75833,12614
5.76667,12343
5.77500,12092
5.78333,11861
5.79167,11650
5.80000,11457
5.80833,11280
5.81667,11121
5.82500,10975
5.83333,10844
5.84167,10727
5.85000,10621
5.85833,10525
5.86667,10439
5.87500,10366
5.88333,10302
5.89167,10247
5.90000,10197
5.90833,10151
5.91667,10110
5.92500,10075
5.93333,10045
5.94167,10014
5.95000,9984
5.95833,9955
5.96667,9929
5.97500,9902
5.98333,9874
5.99167,9847
6.00000,9820
6.00833,9789
6.01667,9755
6.02500,9721
6.03333,9683
6.04167,9638
6.05000,9589
6.05833,9535
6.06667,9479
6.07500,9419
6.08333,9355
6.09167,9287
6.10000,9218
6.10833,9146
6.11667,9070
6.12500,8989
6.13333,8904
6.14167,8813
6.15000,8718
6.15833,8618
6.16667,8511
6.17500,8404
6.18333,8294
6.19167,8180
6.20000,8066
6.20833,7952
6.21667,7838
6.22500,7721
6.23333,7601
6.24167,7477
6.25000,7352
6.25833,7227
6.26667,7102
6.27500,6975
6.28333,6846
6.29167,6714
6.30000,6583
6.30833,6453
6.31667,6324
6.32500,6196
6.33333,6068
6.34167,5938
6.35000,5809
6.35833,5684
6.36667,5556
6.37500,5430
6.38333,5305
6.39167,5181
6.40000,5059
6.40833,4941
6.41667,4825
6.42500,4712
6.43333,4603
6.44167,4501
6.45000,4402
6.45833,4304
6.46667,4205
6.47500,4107
6.48333,4008
6.49167,3912
6.50000,3821
6.50833,3732
6.51667,3643
6.52500,3558
6.53333,3475
6.54167,3392
6.55000,3313
6.55833,3238
6.56667,3161
6.57500,3085
6.58333,3009
6.59167,2935
6.60000,2863
6.60833,2788
6.61667,2714
6.62500,2640
6.63333,2570
6.64167,2501
6.65000,2432
6.65833,2366
6.66667,2300
6.67500,2232
6.68333,2167
6.69167,2102
6.70000,2037
6.70833,1974
6.71667,1917
6.72500,1863
6.73333,1811
6.74167,1760
6.75000,1713
6.75833,1672
6.76667,1634
6.77500,1600
6.78333,1570
6.79167,1547
6.80000,1532
6.80833,1525
6.81667,1530
6.82500,1550
6.83333,1586
6.84167,1642
6.85000,1721
6.85833,1826
6.86667,1965
6.87500,2145
6.88333,2371
6.89167,2647
6.90000,2982
6.90833,3388
6.91667,3873
6.92500,4444
6.93333,5108
6.94167,5873
6.95000,6741
6.95833,7720
6.96667,8816
6.97500,10028
6.98333,11352
6.99167,12776
7.00000,14286
7.00833,15869
7.01667,17512
7.02500,19200
7.03333,20905
7.04167,22609
7.05000,24286
7.05833,25912
7.06667,27470
7.07500,28946
7.08333,30333
7.09167,31614
7.10000,32771
7.10833,33798
7.11667,34696
7.12500,35469
7.13333,36129
7.14167,36684
7.15000,37142
7.15833,37511
7.16667,37794
7.17500,37999
7.18333,38129
7.19167,38183
7.20000,38166
7.20833,38083
7.21667,37930
7.22500,37703
7.23333,37396
7.24167,37009
7.25000,36536
7.25833,35980
7.26667,35349
7.27500,34637
7.28333,33851
7.29167,32998
7.30000,32079
7.30833,31105
7.31667,30085
7.32500,29031
7.33333,27956
7.34167,26868
7.35000,25773
7.35833,24678
7.36667,23591
7.37500,22518
7.38333,21468
7.39167,20450
7.40000,19466
7.40833,18516
7.41667,17599
7.42500,16717
7.43333,15875
7.44167,15073
7.45000,14311
7.45833,13587
7.46667,12901
7.47500,12250
7.48333,11635
7.49167,11056
7.50000,10510
7.50833,10002
7.51667,9529
7.52500,9086
7.53333,8676
7.54167,8296
7.55000,7945
7.55833,7623
7.56667,7331
7.57500,7067
7.58333,6831
7.59167,6626
7.60000,6449
7.60833,6303
7.61667,6188
7.62500,6105
7.63333,6057
7.64167,6045
7.65000,6066
7.65833,6123
7.66667,6218
7.67500,6353
7.68333,6530
7.69167,6752
7.70000,7018
7.70833,7329
7.71667,7687
7.72500,8096
7.73333,8559
7.74167,9074
7.75000,9639
7.75833,10251
7.76667,10907
7.77500,11610
7.78333,12356
7.79167,13134
7.80000,13942
7.80833,14776
7.81667,15628
7.82500,16493
7.83333,17367
7.84167,18245
7.85000,19117
7.85833,19975
7.86667,20814
7.87500,21633
7.88333,22426
7.89167,23191
7.90000,23925
7.90833,24627
7.91667,25296
7.92500,25936
7.93333,26547
7.94167,27131
7.95000,27688
7.95833,28217
7.96667,28718
7.97500,29186
7.98333,29622
7.99167,30030
8.00000,30406
8.00833,30749
8.01667,31055
8.02500,31325
8.03333,31557
8.04167,31751
8.05000,31906
8.05833,32017
8.06667,32083
8.07500,32103
8.08333,32078
8.09167,32012
8.10000,31903
8.10833,31755
8.11667,31567
8.12500,31341
8.13333,31080
8.14167,30789
8.15000,30470
8.15833,30124
8.16667,29753
8.17500,29358
8.18333,28947
8.19167,28523
8.20000,28083
8.20833,27631
8.21667,27166
8.22500,26690
8.23333,26206
8.24167,25717
8.25000,25223
8.25833,24722
8.26667,24220
8.27500,23718
8.28333,23215
8.29167,22709
8.30000,22205
8.30833,21701
8.31667,21199
8.32500,20699
8.33333,20201
8.34167,19705
8.35000,19219
8.35833,18740
8.36667,18269
8.37500,17804
8.38333,17347
8.39167,16896
8.40000,16454
8.40833,16021
8.41667,15597
8.42500,15182
8.43333,14775
8.44167,14376
8.45000,13987
8.45833,13606
8.46667,13236
8.47500,12876
8.48333,12525
8.49167,12185
8.50000,11853
8.50833,11530
8.51667,11217
8.52500,10912
8.53333,10615
8.54167,10328
8.55000,10050
8.55833,9782
8.56667,9520
8.57500,9267
8.58333,9023
8.59167,8790
8.60000,8566
8.60833,8354
8.61667,8148
8.62500,7951
8.63333,7760
8.64167,7576
8.65000,7399
8.65833,7230
8.66667,7064
8.67500,6905
8.68333,6752
8.69167,6607
8.70000,6471
8.70833,6339
8.71667,6215
8.72500,6097
8.73333,5984
8.74167,5871
8.75000,5762
8.75833,5655
8.76667,5549
8.77500,5445
8.78333,5347
8.79167,5253
8.80000,5161
8.80833,5071
8.81667,4982
8.82500,4897
8.83333,4814
8.84167,4732
8.85000,4652
8.85833,4575
8.86667,4499
8.87500,4422
8.88333,4345
8.89167,4267
8.90000,4190
8.90833,4115
8.91667,4043
8.92500,3974
8.93333,3907
8.94167,3840
8.95000,3778
8.95833,3719
8.96667,3665
8.97500,3610
8.98333,3555
8.99167,3507
9.00000,3468
9.00833,3437
9.01667,3409
9.02500,3389
9.03333,3380
9.04167,3381
9.05000,3394
9.05833,3421
9.06667,3459
9.07500,3510
9.08333,3576
9.09167,3657
9.10000,3757
9.10833,3878
9.11667,4017
9.12500,4175
9.13333,4353
9.14167,4551
9.15000,4777
9.15833,5022
9.16667,5287
9.17500,5574
9.18333,5879
9.19167,6199
9.20000,6534
9.20833,6881
9.21667,7237
9.22500,7600
9.23333,7969
9.24167,8342
9.25000,8715
9.25833,9081
9.26667,9437
9.27500,9782
9.28333,10110
9.29167,10421
9.30000,10714
9.30833,10984
9.31667,11229
9.32500,11451
9.33333,11652
9.34167,11829
9.35000,11985
9.35833,12119
9.36667,12235
9.37500,12335
9.38333,12414
9.39167,12471
9.40000,12512
9.40833,12542
9.41667,12558
9.42500,12560
9.43333,12550
9.44167,12528
9.45000,12494
9.45833,12452
9.46667,12398
9.47500,12331
9.48333,12253
9.49167,12161
9.50000,12056
9.50833,11938
9.51667,11803
9.52500,11653
9.53333,11488
9.54167,11304
9.55000,11108
9.55833,10900
9.56667,10680
9.57500,10446
9.58333,10201
9.59167,9945
9.60000,9682
9.60833,9416
9.61667,9145
9.62500,8868
9.63333,8591
9.64167,8311
9.65000,8030
9.65833,7752
9.66667,7479
9.67500,7211
9.68333,6952
9.69167,6699
9.70000,6452
9.70833,6213
9.71667,5984
9.72500,5762
9.73333,5550
9.74167,5345
9.75000,5149
9.75833,4963
9.76667,4784
9.77500,4612
9.78333,4452
9.79167,4300
9.80000,4156
9.80833,4020
9.81667,3889
9.82500,3765
9.83333,3646
9.84167,3534
9.85000,3426
9.85833,3323
9.86667,3224
9.87500,3129
9.88333,3041
9.89167,2955
9.90000,2873
9.90833,2797
9.91667,2725
9.92500,2655
9.93333,2590
9.94167,2528
9.95000,2470
9.95833,2411
9.96667,2354
9.97500,2298
9.98333,2244
9.99167,2192
10.00000,2144
10.00833,2095
10.01667,2046
10.02500,2002
10.03333,1960
10.04167,1922
10.05000,1885
10.05833,1852
10.06667,1821
10.07500,1790
10.08333,1758
10.09167,1727
10.10000,1700
10.10833,1674
10.11667,1647
10.12500,1622
10.13333,1599
10.14167,1578
10.15000,1558
10.15833,1540
10.16667,1523
10.17500,1503
10.18333,1483
10.19167,1466
10.20000,1450
10.20833,1433
10.21667,1415
10.22500,1399
10.23333,1387
10.24167,1377
10.25000,1363
10.25833,1345
10.26667,1332
10.27500,1318
10.28333,1301
10.29167,1285
10.30000,1269
10.30833,1254
10.31667,1239
10.32500,1225
10.33333,1214
10.34167,1202
10.35000,1192
10.35833,1179
10.36667,1167
10.37500,1154
10.38333,1144
10.39167,1136
10.40000,1126
10.40833,1118
10.41667,1110
10.42500,1099
10.43333,1090
10.44167,1083
10.45000,1078
10.45833,1071
10.46667,1065
10.47500,1058
10.48333,1049
10.49167,1042
10.50000,1034
10.50833,1024
10.51667,1017
10.52500,1013
10.53333,1007
10.54167,1001
10.55000,994
10.55833,988
10.56667,985
10.57500,984
10.58333,983
10.59167,982
10.60000,982
10.60833,982
10.61667,984
10.62500,985
10.63333,988
10.64167,991
10.65000,997
10.65833,1004
10.66667,1014
10.67500,1023
10.68333,1035
10.69167,1049
10.70000,1062
10.70833,1074
10.71667,1086
10.72500,1098
10.73333,1112
10.74167,1124
10.75000,1133
10.75833,1142
10.76667,1154
10.77500,1169
10.78333,1183
10.79167,1197
10.80000,1212
10.80833,1222
10.81667,1231
10.82500,1240
10.83333,1248
10.84167,1250
10.85000,1256
10.85833,1259
10.86667,1266
10.87500,1272
10.88333,1274
10.89167,1278
10.90000,1282
10.90833,1286
10.91667,1291
10.92500,1297
10.93333,1302
10.94167,1306
10.95000,1308
10.95833,1308
10.96667,1305
10.97500,1302
10.98333,1303
10.99167,1306
11.00000,1308
11.00833,1310
11.01667,1310
11.02500,1306
11.03333,1300
11.04167,1294
11.05000,1291
11.05833,1287
11.06667,1279
11.07500,1272
11.08333,1264
11.09167,1256
11.10000,1248
11.10833,1240
11.11667,1232
11.12500,1227
11.13333,1218
11.14167,1208
11.15000,1199
11.15833,1191
11.16667,1178
11.17500,1163
11.18333,1148
11.19167,1132
11.20000,1117
11.20833,1106
11.21667,1096
11.22500,1085
11.23333,1076
11.24167,1067
11.25000,1058
11.25833,1047
11.26667,1035
11.27500,1026
11.28333,1017
11.29167,1007
11.30000,998
11.30833,989
11.31667,983
11.32500,982
11.33333,983
11.34167,985
11.35000,988
11.35833,995
11.36667,1003
11.37500,1016
11.38333,1033
11.39167,1054
11.40000,1076
11.40833,1104
11.41667,1136
11.42500,1173
11.43333,1218
11.44167,1270
11.45000,1330
11.45833,1396
11.46667,1466
11.47500,1544
11.48333,1630
11.49167,1726
11.50000,1830
11.50833,1941
11.51667,2055
11.52500,2177
11.53333,2307
11.54167,2444
11.55000,2589
11.55833,2739
11.56667,2892
11.57500,3050
11.58333,3209
11.59167,3369
11.60000,3526
11.60833,3679
11.61667,3830
11.62500,3977
11.63333,4121
11.64167,4260
11.65000,4393
11.65833,4516
11.66667,4631
11.67500,4737
11.68333,4832
11.69167,4916
11.70000,4988
11.70833,5051
11.71667,5102
11.72500,5144
11.73333,5177
11.74167,5200
11.75000,5216
11.75833,5227
11.76667,5234
11.77500,5234
11.78333,5229
11.79167,5220
11.80000,5207
11.80833,5190
11.81667,5170
11.82500,5149
11.83333,5128
11.84167,5107
11.85000,5085
11.85833,5061
11.86667,5035
11.87500,5010
11.88333,4985
11.89167,4954
11.90000,4919
11.90833,4878
11.91667,4834
11.92500,4787
11.93333,4735
11.94167,4678
11.95000,4613
11.95833,4547
11.96667,4477
11.97500,4401
11.98333,4320
11.99167,4235
12.00000,4151
12.00833,4065
12.01667,3976
12.02500,3882
12.03333,3790
12.04167,3697
12.05000,3603
12.05833,3508
12.06667,3416
12.07500,3327
12.08333,3241
12.09167,3160
12.10000,3082
12.10833,3006
12.11667,2931
12.12500,2863
12.13333,2797
12.14167,2730
12.15000,2667
12.15833,2610
12.16667,2557
12.17500,2504
12.18333,2455
12.19167,2408
12.20000,2363
12.20833,2322
12.21667,2281
12.22500,2240
12.23333,2200
12.24167,2163
12.25000,2128
12.25833,2093
12.26667,2056
12.27500,2017
12.28333,1977
12.29167,1941
12.30000,1905
12.30833,1871
12.31667,1838
12.32500,1803
12.33333,1768
12.34167,1732
12.35000,1697
12.35833,1664
12.36667,1629
12.37500,1593
12.38333,1560
12.39167,1529
12.40000,1501
12.40833,1475
12.41667,1450
12.42500,1428
12.43333,1408
12.44167,1388
12.45000,1369
12.45833,1352
12.46667,1335
12.47500,1319
12.48333,1304
12.49167,1291
12.50000,1281
12.50833,1275
12.51667,1272
12.52500,1268
12.53333,1266
12.54167,1265
12.55000,1265
12.55833,1268
12.56667,1268
12.57500,1268
12.58333,1268
12.59167,1269
12.60000,1269
12.60833,1268
12.61667,1269
12.62500,1271
12.63333,1274
12.64167,1278
12.65000,1282
12.65833,1283
12.66667,1285
12.67500,1286
12.68333,1288
12.69167,1291
12.70000,1294
12.70833,1295
12.71667,1297
12.72500,1299
12.73333,1303
12.74167,1309
12.75000,1315
12.75833,1321
12.76667,1329
12.77500,1336
12.78333,1343
12.79167,1352
12.80000,1360
12.80833,1366
12.81667,1374
12.82500,1381
12.83333,1387
12.84167,1395
12.85000,1404
12.85833,1415
12.86667,1424
12.87500,1433
12.88333,1441
12.89167,1448
12.90000,1455
12.90833,1461
12.91667,1465
12.92500,1466
12.93333,1466
12.94167,1469
12.95000,1474
12.95833,1480
12.96667,1485
12.97500,1490
12.98333,1492
12.99167,1492
13.00000,1492
13.00833,1491
13.01667,1490
13.02500,1489
13.03333,1487
13.04167,1483
13.05000,1479
13.05833,1477
13.06667,1476
13.07500,1475
13.08333,1473
13.09167,1471
13.10000,1466
13.10833,1464
13.11667,1461
13.12500,1458
13.13333,1455
13.14167,1455
13.15000,1455
13.15833,1455
13.16667,1459
13.17500,1463
13.18333,1466
13.19167,1468
13.20000,1469
13.20833,1468
13.21667,1470
13.22500,1471
13.23333,1471
13.24167,1472
13.25000,1472
13.25833,1472
13.26667,1472
13.27500,1469
13.28333,1468
13.29167,1467
13.30000,1467
13.30833,1466
13.31667,1464
13.32500,1463
13.33333,1457
13.34167,1449
13.35000,1440
13.35833,1430
13.36667,1422
13.37500,1413
13.38333,1405
13.39167,1400
13.40000,1396
13.40833,1393
13.41667,1387
13.42500,1380
13.43333,1371
13.44167,1362
13.45000,1352
13.45833,1343
13.46667,1337
13.47500,1330
13.48333,1323
13.49167,1320
13.50000,1318
13.50833,1315
13.51667,1316
13.52500,1314
13.53333,1311
13.54167,1305
13.55000,1298
13.55833,1293
13.56667,1287
13.57500,1280
13.58333,1271
13.59167,1259
13.60000,1251
13.60833,1242
13.61667,1232
13.62500,1222
13.63333,1208
13.64167,1194
13.65000,1179
13.65833,1162
13.66667,1142
13.67500,1119
13.68333,1096
13.69167,1072
13.70000,1050
13.70833,1028
13.71667,1005
13.72500,986
13.73333,969
13.74167,949
13.75000,928
13.75833,907
13.76667,886
13.77500,867
13.78333,849
13.79167,830
13.80000,812
13.80833,793
13.81667,777
13.82500,765
13.83333,754
13.84167,746
13.85000,738
13.85833,730
13.86667,723
13.87500,714
13.88333,703
13.89167,693
13.90000,682
13.90833,673
13.91667,662
13.92500,651
13.93333,642
13.94167,635
13.95000,630
13.95833,622
13.96667,612
13.97500,600
13.98333,587
13.99167,576
14.00000,568
14.00833,560
14.01667,550
14.02500,542
14.03333,536
14.04167,534
14.05000,534
14.05833,530
14.06667,524
14.07500,518
14.08333,513
14.09167,511
14.10000,510
14.10833,507
14.11667,504
14.12500,501
14.13333,497
14.14167,493
14.15000,484
14.15833,476
14.16667,471
14.17500,467
14.18333,463
14.19167,456
14.20000,446
14.20833,435
14.21667,423
14.22500,413
14.23333,402
14.24167,391
14.25000,380
14.25833,372
14.26667,362
14.27500,352
14.28333,343
14.29167,335
14.30000,328
14.30833,321
14.31667,313
14.32500,306
14.33333,299
14.34167,294
14.35000,287
14.35833,283
14.36667,282
14.37500,284
14.38333,287
14.39167,290
14.40000,293
14.40833,296
14.41667,298
14.42500,301
14.43333,305
14.44167,308
14.45000,310
14.45833,314
14.46667,317
14.47500,321
14.48333,326
14.49167,330
14.50000,333
14.50833,336
14.51667,338
14.52500,340
14.53333,343
14.54167,345
14.55000,346
14.55833,348
14.56667,351
14.57500,355
14.58333,359
14.59167,363
14.60000,367
14.60833,371
14.61667,372
14.62500,376
14.63333,377
14.64167,377
14.65000,376
14.65833,373
14.66667,372
14.67500,371
14.68333,370
14.69167,371
14.70000,372
14.70833,375
14.71667,376
14.72500,376
14.73333,375
14.74167,374
14.75000,372
14.75833,371
14.76667,368
14.77500,363
14.78333,357
14.79167,354
14.80000,353
14.80833,354
14.81667,355
14.82500,357
14.83333,358
14.84167,361
14.85000,365
14.85833,368
14.86667,371
14.87500,373
14.88333,379
14.89167,386
14.90000,396
14.90833,408
14.91667,421
14.92500,432
14.93333,444
14.94167,456
14.95000,467
14.95833,478
14.96667,491
14.97500,506
14.98333,517
14.99167,524
15.00000,531

[LC Status Trace(Pump A Pressure)]
Interval(msec),1000
# of Points,901
Start Time(min),0.000
End Time(min),15.000
Intensity Units,kgf/cm2
Intensity Multiplier,1
R.Time (min),Intensity
0.00000,226.5
0.01667,226.5
0.03333,227.1
0.05000,221.3
0.06667,220.4
0.08333,221.9
0.10000,222.5
0.11667,223.8
0.13333,225.4
0.15000,229.3
0.16667,231.7
0.18333,232.8
0.20000,231.0
0.21667,231.1
0.23333,230.2
0.25000,230.4
0.26667,230.6
0.28333,230.3
0.30000,229.8
0.31667,227.8
0.33333,227.8
0.35000,228.5
0.36667,229.4
0.38333,229.4
0.40000,228.6
0.41667,226.8
0.43333,227.7
0.45000,227.6
0.46667,228.6
0.48333,229.0
0.50000,229.0
0.51667,228.2
0.53333,226.9
0.55000,227.2
0.56667,227.3
0.58333,228.5
0.60000,228.8
0.61667,228.8
0.63333,226.3
0.65000,226.9
0.66667,227.4
0.68333,227.7
0.70000,228.5
0.71667,228.8
0.73333,226.3
0.75000,226.7
0.76667,226.9
0.78333,227.6
0.80000,227.8
0.81667,228.1
0.83333,228.5
0.85000,225.8
0.86667,226.5
0.88333,227.3
0.90000,227.2
0.91667,227.4
0.93333,228.2
0.95000,225.9
0.96667,225.6
0.98333,226.4
1.00000,227.6
1.01667,227.6
1.03333,227.4
1.05000,228.2
1.06667,228.2
1.08333,226.1
1.10000,226.4
1.11667,227.2
1.13333,227.8
1.15000,227.7
1.16667,228.2
1.18333,225.9
1.20000,225.9
1.21667,227.1
1.23333,227.4
1.25000,227.3
1.26667,227.7
1.28333,228.0
1.30000,225.9
1.31667,226.1
1.33333,227.4
1.35000,227.7
1.36667,227.4
1.38333,227.6
1.40000,226.0
1.41667,225.8
1.43333,226.5
1.45000,227.4
1.46667,227.8
1.48333,227.3
1.50000,226.5
1.51667,226.0
1.53333,225.8
1.55000,226.3
1.56667,227.3
1.58333,226.9
1.60000,227.2
1.61667,225.1
1.63333,226.0
1.65000,226.1
1.66667,226.9
1.68333,227.7
1.70000,227.2
1.71667,225.1
1.73333,226.4
1.75000,226.7
1.76667,226.9
1.78333,228.2
1.80000,228.6
1.81667,228.2
1.83333,226.3
1.85000,227.4
1.86667,228.0
1.88333,228.2
1.90000,229.0
1.91667,229.1
1.93333,226.1
1.95000,227.3
1.96667,227.6
1.98333,228.2
2.00000,228.6
2.01667,228.6
2.03333,229.0
2.05000,226.0
2.06667,226.1
2.08333,227.7
2.10000,227.3
2.11667,227.7
2.13333,228.5
2.15000,228.4
2.16667,225.9
2.18333,226.5
2.20000,227.3
2.21667,227.4
2.23333,227.7
2.25000,228.2
2.26667,225.6
2.28333,226.1
2.30000,227.1
2.31667,227.6
2.33333,227.4
2.35000,228.1
2.36667,226.8
2.38333,225.8
2.40000,226.5
2.41667,226.9
2.43333,227.7
2.45000,227.2
2.46667,227.8
2.48333,225.8
2.50000,225.8
2.51667,226.3
2.53333,227.4
2.55000,227.3
2.56667,227.4
2.58333,225.8
2.60000,226.3
2.61667,226.0
2.63333,226.9
2.65000,227.7
2.66667,227.3
2.68333,227.3
2.70000,225.6
2.71667,225.8
2.73333,226.4
2.75000,227.4
2.76667,227.8
2.78333,227.3
2.80000,227.4
2.81667,225.8
2.83333,226.0
2.85000,226.8
2.86667,227.4
2.88333,227.7
2.90000,227.3
2.91667,225.2
2.93333,226.3
2.95000,226.4
2.96667,226.8
2.98333,227.2
3.00000,227.2
3.01667,227.2
3.03333,225.1
3.05000,226.3
3.06667,226.4
3.08333,227.2
3.10000,227.7
3.11667,227.8
3.13333,226.8
3.15000,225.9
3.16667,226.3
3.18333,226.1
3.20000,227.2
3.21667,227.8
3.23333,227.8
3.25000,225.0
3.26667,226.5
3.28333,226.8
3.30000,227.1
3.31667,227.4
3.33333,227.7
3.35000,225.0
3.36667,226.0
3.38333,226.3
3.40000,226.7
3.41667,227.2
3.43333,227.7
3.45000,227.7
3.46667,224.8
3.48333,226.0
3.50000,226.5
3.51667,227.2
3.53333,227.2
3.55000,227.6
3.56667,225.4
3.58333,225.8
3.60000,226.5
3.61667,227.2
3.63333,226.9
3.65000,227.4
3.66667,227.7
3.68333,225.4
3.70000,225.6
3.71667,226.9
3.73333,227.2
3.75000,227.2
3.76667,227.3
3.78333,225.2
3.80000,225.6
3.81667,225.6
3.83333,226.8
3.85000,227.4
3.86667,226.9
3.88333,227.3
3.90000,225.5
3.91667,225.8
3.93333,225.5
3.95000,226.8
3.96667,227.6
3.98333,226.9
4.00000,225.5
4.01667,225.5
4.03333,226.0
4.05000,226.3
4.06667,227.3
4.08333,226.8
4.10000,227.1
4.11667,225.2
4.13333,225.9
4.15000,225.8
4.16667,226.7
4.18333,227.2
4.20000,226.9
4.21667,225.0
4.23333,225.1
4.25000,225.9
4.26667,226.5
4.28333,227.2
4.30000,227.6
4.31667,224.8
4.33333,225.1
4.35000,226.0
4.36667,226.4
4.38333,226.5
4.40000,227.3
4.41667,227.6
4.43333,227.4
4.45000,224.8
4.46667,226.4
4.48333,226.3
4.50000,226.7
4.51667,227.3
4.53333,227.6
4.55000,224.6
4.56667,225.6
4.58333,226.4
4.60000,226.4
4.61667,227.2
4.63333,227.4
4.65000,224.6
4.66667,225.4
4.68333,225.8
4.70000,226.5
4.71667,226.5
4.73333,227.2
4.75000,227.4
4.76667,225.1
4.78333,225.4
4.80000,226.4
4.81667,226.8
4.83333,226.7
4.85000,227.4
4.86667,227.1
4.88333,225.0
4.90000,225.4
4.91667,225.8
4.93333,226.8
4.95000,226.7
4.96667,227.2
4.98333,226.4
5.00000,225.1
5.01667,225.1
5.03333,226.1
5.05000,227.1
5.06667,226.7
5.08333,225.4
5.10000,225.0
5.11667,225.2
5.13333,225.6
5.15000,226.7
5.16667,226.9
5.18333,226.7
5.20000,224.8
5.21667,225.8
5.23333,225.8
5.25000,226.9
5.26667,227.1
5.28333,226.8
5.30000,224.8
5.31667,225.0
5.33333,225.6
5.35000,226.0
5.36667,226.7
5.38333,227.2
5.40000,226.8
5.41667,224.6
5.43333,225.8
5.45000,225.8
5.46667,226.0
5.48333,227.1
5.50000,227.3
5.51667,226.7
5.53333,225.0
5.55000,225.8
5.56667,225.9
5.58333,226.4
5.60000,227.2
5.61667,227.3
5.63333,224.5
5.65000,225.6
5.66667,225.8
5.68333,226.0
5.70000,226.9
5.71667,227.2
5.73333,226.3
5.75000,224.5
5.76667,225.6
5.78333,226.3
5.80000,226.3
5.81667,226.8
5.83333,227.2
5.85000,224.5
5.86667,225.0
5.88333,225.9
5.90000,226.1
5.91667,225.8
5.93333,226.7
5.95000,227.3
5.96667,224.3
5.98333,225.0
6.00000,226.3
6.01667,226.3
6.03333,226.4
6.05000,227.1
6.06667,227.2
6.08333,225.0
6.10000,225.1
6.11667,226.3
6.13333,226.8
6.15000,226.5
6.16667,227.1
6.18333,224.7
6.20000,225.0
6.21667,225.9
6.23333,226.7
6.25000,226.4
6.26667,226.8
6.28333,224.7
6.30000,225.1
6.31667,225.1
6.33333,226.3
6.35000,226.9
6.36667,226.4
6.38333,226.4
6.40000,224.7
6.41667,225.4
6.43333,225.6
6.45000,226.1
6.46667,226.9
6.48333,226.5
6.50000,226.5
6.51667,224.8
6.53333,225.0
6.55000,226.3
6.56667,226.7
6.58333,226.9
6.60000,226.4
6.61667,225.2
6.63333,225.5
6.65000,225.8
6.66667,226.7
6.68333,226.9
6.70000,226.5
6.71667,225.8
6.73333,225.2
6.75000,225.5
6.76667,225.5
6.78333,226.7
6.80000,227.1
6.81667,226.7
6.83333,224.3
6.85000,225.4
6.86667,225.8
6.88333,226.0
6.90000,226.5
6.91667,226.9
6.93333,227.1
6.95000,224.3
6.96667,225.4
6.98333,225.9
7.00000,225.9
7.01667,226.7
7.03333,226.9
7.05000,223.9
7.06667,225.1
7.08333,225.9
7.10000,226.1
7.11667,226.3
7.13333,226.7
7.15000,226.9
7.16667,224.1
7.18333,224.8
7.20000,226.1
7.21667,226.3
7.23333,226.4
7.25000,226.9
7.26667,224.6
7.28333,224.7
7.30000,225.8
7.31667,226.5
7.33333,226.3
7.35000,226.8
7.36667,226.8
7.38333,224.7
7.40000,225.1
7.41667,225.9
7.43333,225.9
7.45000,226.1
7.46667,226.1
7.48333,224.6
7.50000,224.6
7.51667,225.1
7.53333,226.3
7.55000,226.3
7.56667,226.4
7.58333,226.1
7.60000,225.0
7.61667,224.6
7.63333,225.6
7.65000,226.5
7.66667,226.1
7.68333,226.4
7.70000,225.2
7.71667,225.2
7.73333,224.8
7.75000,224.8
7.76667,226.5
7.78333,226.7
7.80000,224.5
7.81667,224.5
7.83333,225.2
7.85000,225.1
7.86667,226.1
7.88333,226.8
7.90000,225.8
7.91667,224.1
7.93333,224.5
7.95000,225.2
7.96667,225.2
7.98333,226.0
8.00000,226.8
8.01667,226.3
8.03333,223.9
8.05000,225.2
8.06667,225.2
8.08333,225.4
8.10000,225.9
8.11667,226.8
8.13333,226.1
8.15000,226.1
8.16667,225.6
8.18333,225.5
8.20000,226.4
8.21667,226.7
8.23333,226.7
8.25000,224.2
8.26667,225.2
8.28333,225.8
8.30000,225.9
8.31667,226.1
8.33333,226.7
8.35000,226.7
8.36667,224.3
8.38333,224.3
8.40000,225.8
8.41667,226.1
8.43333,226.1
8.45000,226.7
8.46667,226.7
8.48333,224.6
8.50000,225.8
8.51667,226.0
8.53333,225.9
8.55000,226.7
8.56667,225.2
8.58333,224.5
8.60000,225.1
8.61667,225.6
8.63333,225.9
8.65000,226.1
8.66667,226.7
8.68333,224.3
8.70000,224.3
8.71667,224.5
8.73333,225.5
8.75000,226.1
8.76667,226.1
8.78333,226.5
8.80000,223.8
8.81667,223.8
8.83333,225.1
8.85000,226.1
8.86667,226.4
8.88333,226.0
8.90000,224.2
8.91667,224.3
8.93333,224.5
8.95000,225.5
8.96667,226.1
8.98333,225.8
9.00000,224.2
9.01667,224.2
9.03333,225.1
9.05000,225.0
9.06667,226.1
9.08333,226.1
9.10000,226.4
9.11667,226.4
9.13333,224.5
9.15000,225.0
9.16667,225.6
9.18333,226.4
9.20000,225.9
9.21667,225.9
9.23333,224.3
9.25000,225.0
9.26667,225.0
9.28333,225.9
9.30000,226.5
9.31667,226.4
9.33333,225.2
9.35000,225.2
9.36667,225.1
9.38333,225.1
9.40000,225.1
9.41667,226.5
9.43333,224.5
9.45000,223.7
9.46667,223.7
9.48333,225.5
9.50000,225.9
9.51667,226.3
9.53333,226.5
9.55000,223.8
9.56667,224.5
9.58333,225.1
9.60000,225.2
9.61667,225.8
9.63333,226.5
9.65000,226.4
9.66667,226.4
9.68333,224.7
9.70000,225.4
9.71667,225.4
9.73333,225.8
9.75000,225.8
9.76667,224.1
9.78333,224.1
9.80000,225.4
9.81667,225.4
9.83333,226.1
9.85000,225.9
9.86667,226.1
9.88333,224.1
9.90000,224.2
9.91667,224.5
9.93333,225.8
9.95000,225.8
9.96667,226.0
9.98333,226.3
10.00000,224.3
10.01667,224.2
10.03333,225.4
10.05000,226.1
10.06667,226.0
10.08333,226.0
10.10000,225.9
10.11667,225.9
10.13333,225.0
10.15000,226.0
10.16667,226.1
10.18333,225.9
10.20000,224.2
10.21667,224.7
10.23333,224.5
10.25000,225.6
10.26667,226.3
10.28333,225.9
10.30000,225.9
10.31667,225.9
10.33333,224.7
10.35000,224.7
10.36667,225.6
10.38333,225.6
10.40000,226.4
10.41667,225.9
10.43333,225.9
10.45000,225.0
10.46667,225.5
10.48333,226.1
10.50000,226.4
10.51667,225.8
10.53333,223.7
10.55000,224.8
10.56667,225.0
10.58333,225.5
10.60000,226.1
10.61667,225.9
10.63333,225.9
10.65000,223.7
10.66667,224.7
10.68333,225.1
10.70000,225.1
10.71667,225.1
10.73333,226.4
10.75000,226.4
10.76667,224.5
10.78333,224.5
10.80000,225.0
10.81667,225.8
10.83333,226.1
10.85000,226.1
10.86667,223.6
10.88333,224.2
10.90000,225.2
10.91667,225.4
10.93333,225.6
10.95000,226.4
10.96667,223.7
10.98333,223.8
11.00000,223.8
11.01667,225.8
11.03333,225.8
11.05000,225.9
11.06667,225.9
11.08333,224.1
11.10000,224.1
11.11667,225.1
11.13333,225.9
11.15000,225.8
11.16667,223.7
11.18333,224.1
11.20000,224.2
11.21667,224.6
11.23333,225.6
11.25000,225.5
11.26667,225.9
11.28333,225.9
11.30000,223.8
11.31667,223.8
11.33333,224.7
11.35000,226.1
11.36667,225.6
11.38333,225.6
11.40000,223.9
11.41667,223.9
11.43333,223.9
11.45000,225.8
11.46667,226.3
11.48333,225.5
11.50000,223.7
11.51667,224.5
11.53333,224.2
11.55000,225.0
11.56667,225.8
11.58333,226.0
11.60000,225.5
11.61667,223.6
11.63333,223.6
11.65000,224.7
11.66667,224.7
11.68333,226.0
11.70000,226.0
11.71667,226.0
11.73333,223.4
11.75000,223.4
11.76667,224.6
11.78333,225.0
11.80000,225.9
11.81667,226.0
11.83333,224.1
11.85000,224.2
11.86667,224.7
11.88333,225.0
11.90000,225.5
11.91667,225.8
11.93333,226.1
11.95000,223.3
11.96667,224.5
11.98333,224.5
12.00000,224.5
12.01667,225.4
12.03333,225.4
12.05000,223.6
12.06667,223.6
12.08333,223.6
12.10000,225.0
12.11667,225.6
12.13333,226.0
12.15000,223.7
12.16667,223.3
12.18333,224.3
12.20000,225.2
12.21667,225.6
12.23333,225.4
12.25000,226.0
12.26667,226.0
12.28333,226.0
12.30000,223.9
12.31667,225.2
12.33333,225.6
12.35000,225.6
12.36667,225.8
12.38333,225.8
12.40000,225.8
12.41667,224.1
12.43333,225.6
12.45000,225.4
12.46667,225.4
12.48333,223.6
12.50000,223.9
12.51667,223.9
12.53333,225.4
12.55000,225.8
12.56667,225.2
12.58333,224.6
12.60000,224.6
12.61667,224.2
12.63333,224.2
12.65000,225.2
12.66667,225.2
12.68333,225.2
12.70000,225.2
12.71667,225.2
12.73333,224.3
12.75000,224.2
12.76667,225.2
12.78333,225.8
12.80000,225.1
12.81667,223.2
12.83333,224.3
12.85000,224.2
12.86667,224.6
12.88333,225.6
12.90000,225.9
12.91667,225.2
12.93333,223.4
12.95000,223.4
12.96667,223.4
12.98333,224.5
13.00000,225.9
13.01667,225.9
13.03333,225.9
13.05000,224.2
13.06667,224.2
13.08333,224.8
13.10000,225.8
13.11667,225.8
13.13333,223.0
13.15000,224.1
13.16667,224.3
13.18333,224.6
13.20000,225.1
13.21667,225.6
13.23333,225.4
13.25000,222.9
13.26667,222.9
13.28333,224.2
13.30000,224.7
13.31667,224.7
13.33333,225.6
13.35000,225.6
13.36667,223.4
13.38333,223.4
13.40000,223.4
13.41667,225.4
13.43333,225.5
13.45000,223.8
13.46667,223.6
13.48333,223.7
13.50000,224.7
13.51667,225.4
13.53333,225.0
13.55000,225.6
13.56667,223.4
13.58333,223.4
13.60000,223.4
13.61667,224.1
13.63333,224.1
13.65000,225.1
13.66667,225.1
13.68333,223.4
13.70000,223.7
13.71667,223.7
13.73333,224.7
13.75000,225.6
13.76667,225.0
13.78333,225.4
13.80000,224.2
13.81667,224.2
13.83333,224.2
13.85000,225.4
13.86667,225.6
13.88333,225.1
13.90000,223.2
13.91667,223.2
13.93333,223.7
13.95000,223.7
13.96667,225.5
13.98333,225.5
14.00000,225.5
14.01667,223.0
14.03333,223.0
14.05000,224.5
14.06667,225.5
14.08333,225.5
14.10000,224.5
14.11667,222.9
14.13333,223.9
14.15000,224.2
14.16667,225.1
14.18333,225.5
14.20000,225.6
14.21667,223.6
14.23333,223.7
14.25000,223.9
14.26667,223.9
14.28333,225.0
14.30000,225.0
14.31667,225.0
14.33333,222.6
14.35000,222.6
14.36667,224.3
14.38333,224.3
14.40000,225.4
14.41667,225.5
14.43333,222.4
14.45000,223.4
14.46667,223.8
14.48333,224.7
14.50000,224.7
14.51667,225.5
14.53333,225.6
14.55000,223.2
14.56667,223.6
14.58333,223.6
14.60000,224.8
14.61667,224.8
14.63333,224.8
14.65000,225.4
14.66667,223.2
14.68333,223.6
14.70000,223.6
14.71667,225.1
14.73333,224.7
14.75000,225.1
14.76667,223.0
14.78333,223.3
14.80000,223.7
14.81667,224.3
14.83333,225.1
14.85000,225.0
14.86667,225.0
14.88333,225.0
14.90000,223.6
14.91667,223.6
14.93333,224.8
14.95000,224.8
14.96667,225.0
14.98333,225.0
15.00000,225.0

[LC Status Trace(Pump B Pressure)]
Interval(msec),1000
# of Points,901
Start Time(min),0.000
End Time(min),15.000
Intensity Units,kgf/cm2
Intensity Multiplier,1
R.Time (min),Intensity
0.00000,242.4
0.01667,242.4
0.03333,243.6
0.05000,236.3
0.06667,236.7
0.08333,239.4
0.10000,239.0
0.11667,239.8
0.13333,242.1
0.15000,242.1
0.16667,242.1
0.18333,248.5
0.20000,248.5
0.21667,247.6
0.23333,247.6
0.25000,247.1
0.26667,247.1
0.28333,246.4
0.30000,244.2
0.31667,244.6
0.33333,244.2
0.35000,245.3
0.36667,245.6
0.38333,245.9
0.40000,244.9
0.41667,243.2
0.43333,244.1
0.45000,244.2
0.46667,244.2
0.48333,244.2
0.50000,245.1
0.51667,245.1
0.53333,242.8
0.55000,244.0
0.56667,243.7
0.58333,243.7
0.60000,245.3
0.61667,245.3
0.63333,242.7
0.65000,243.6
0.66667,243.6
0.68333,244.2
0.70000,244.5
0.71667,245.1
0.73333,245.3
0.75000,242.3
0.76667,243.4
0.78333,243.7
0.80000,243.7
0.81667,244.2
0.83333,244.9
0.85000,242.0
0.86667,242.0
0.88333,243.6
0.90000,243.6
0.91667,243.6
0.93333,244.5
0.95000,244.5
0.96667,242.3
0.98333,242.9
1.00000,243.6
1.01667,244.2
1.03333,244.0
1.05000,244.6
1.06667,244.9
1.08333,242.7
1.10000,243.1
1.11667,243.6
1.13333,244.3
1.15000,244.3
1.16667,244.3
1.18333,244.6
1.20000,242.5
1.21667,242.7
1.23333,242.7
1.25000,243.8
1.26667,243.8
1.28333,242.1
1.30000,242.4
1.31667,242.5
1.33333,243.8
1.35000,244.0
1.36667,244.1
1.38333,243.7
1.40000,242.4
1.41667,242.1
1.43333,242.9
1.45000,243.8
1.46667,244.2
1.48333,244.2
1.50000,243.7
1.51667,242.3
1.53333,242.1
1.55000,242.1
1.56667,243.8
1.58333,243.8
1.60000,243.8
1.61667,242.1
1.63333,242.3
1.65000,242.4
1.66667,242.5
1.68333,244.2
1.70000,243.7
1.71667,243.7
1.73333,242.0
1.75000,242.9
1.76667,243.3
1.78333,244.2
1.80000,244.2
1.81667,245.3
1.83333,242.8
1.85000,243.8
1.86667,243.8
1.88333,244.7
1.90000,244.7
1.91667,244.7
1.93333,245.3
1.95000,243.1
1.96667,243.8
1.98333,244.5
2.00000,244.6
2.01667,245.1
2.03333,245.5
2.05000,242.4
2.06667,242.8
2.08333,243.8
2.10000,244.0
2.11667,244.0
2.13333,244.9
2.15000,244.9
2.16667,242.3
2.18333,242.4
2.20000,244.1
2.21667,244.1
2.23333,244.1
2.25000,244.7
2.26667,241.9
2.28333,242.5
2.30000,243.6
2.31667,244.1
2.33333,243.8
2.35000,244.5
2.36667,242.9
2.38333,242.1
2.40000,243.2
2.41667,243.4
2.43333,243.8
2.45000,243.7
2.46667,243.7
2.48333,242.3
2.50000,242.0
2.51667,242.0
2.53333,243.4
2.55000,243.4
2.56667,243.8
2.58333,242.1
2.60000,242.0
2.61667,242.4
2.63333,243.4
2.65000,243.8
2.66667,244.2
2.68333,244.1
2.70000,242.0
2.71667,242.0
2.73333,242.3
2.75000,243.4
2.76667,244.2
2.78333,244.2
2.80000,244.0
2.81667,241.9
2.83333,241.9
2.85000,242.8
2.86667,242.8
2.88333,244.2
2.90000,243.7
2.91667,243.7
2.93333,241.9
2.95000,242.5
2.96667,242.8
2.98333,243.6
3.00000,243.8
3.01667,243.8
3.03333,241.6
3.05000,242.7
3.06667,242.8
3.08333,242.8
3.10000,243.6
3.11667,243.6
3.13333,241.2
3.15000,241.2
3.16667,242.8
3.18333,242.8
3.20000,242.8
3.21667,244.2
3.23333,244.2
3.25000,241.9
3.26667,242.5
3.28333,243.2
3.30000,243.4
3.31667,244.0
3.33333,244.2
3.35000,241.2
3.36667,241.8
3.38333,242.8
3.40000,243.2
3.41667,243.3
3.43333,244.1
3.45000,244.2
3.46667,244.2
3.48333,242.5
3.50000,242.5
3.51667,242.5
3.53333,243.3
3.55000,244.0
3.56667,241.8
3.58333,241.4
3.60000,242.1
3.61667,242.8
3.63333,243.7
3.65000,243.6
3.66667,243.8
3.68333,241.6
3.70000,241.9
3.71667,242.1
3.73333,243.4
3.75000,243.4
3.76667,243.7
3.78333,243.7
3.80000,242.0
3.81667,242.0
3.83333,242.0
3.85000,243.8
3.86667,243.8
3.88333,243.6
3.90000,243.6
3.91667,242.0
3.93333,242.1
3.95000,243.6
3.96667,244.0
3.98333,243.3
4.00000,242.9
4.01667,241.8
4.03333,242.4
4.05000,242.5
4.06667,242.5
4.08333,244.0
4.10000,243.6
4.11667,243.6
4.13333,242.3
4.15000,242.3
4.16667,242.3
4.18333,243.4
4.20000,243.4
4.21667,243.3
4.23333,242.1
4.25000,242.3
4.26667,242.3
4.28333,243.7
4.30000,244.0
4.31667,243.4
4.33333,241.5
4.35000,242.4
4.36667,242.9
4.38333,243.1
4.40000,243.6
4.41667,243.7
4.43333,243.7
4.45000,241.2
4.46667,241.2
4.48333,241.2
4.50000,243.3
4.51667,243.3
4.53333,244.0
4.55000,241.2
4.56667,241.9
4.58333,242.1
4.60000,243.1
4.61667,243.1
4.63333,243.6
4.65000,243.8
4.66667,241.0
4.68333,242.1
4.70000,242.8
4.71667,242.9
4.73333,243.2
4.75000,243.2
4.76667,241.1
4.78333,241.1
4.80000,241.1
4.81667,242.8
4.83333,243.2
4.85000,243.3
4.86667,243.3
4.88333,241.5
4.90000,241.6
4.91667,242.0
4.93333,243.2
4.95000,243.2
4.96667,243.2
4.98333,242.1
5.00000,241.6
5.01667,241.5
5.03333,242.7
5.05000,243.4
5.06667,243.4
5.08333,241.4
5.10000,241.4
5.11667,241.4
5.13333,241.8
5.15000,241.8
5.16667,241.8
5.18333,243.2
5.20000,241.4
5.21667,241.2
5.23333,241.8
5.25000,243.2
5.26667,243.6
5.28333,243.1
5.30000,241.2
5.31667,241.2
5.33333,241.9
5.35000,242.5
5.36667,243.1
5.38333,243.1
5.40000,243.1
5.41667,243.1
5.43333,243.1
5.45000,242.1
5.46667,242.5
5.48333,242.5
5.50000,243.6
5.51667,242.9
5.53333,241.0
5.55000,242.0
5.56667,242.1
5.58333,242.4
5.60000,243.6
5.61667,243.6
5.63333,242.7
5.65000,241.8
5.66667,242.1
5.68333,242.4
5.70000,242.8
5.71667,242.8
5.73333,243.7
5.75000,243.7
5.76667,242.1
5.78333,242.1
5.80000,242.1
5.81667,242.7
5.83333,243.6
5.85000,241.1
5.86667,241.1
5.88333,242.1
5.90000,242.5
5.91667,242.5
5.93333,243.2
5.95000,243.6
5.96667,241.4
5.98333,241.4
6.00000,242.3
6.01667,242.7
6.03333,242.5
6.05000,243.4
6.06667,243.4
6.08333,243.4
6.10000,241.5
6.11667,241.5
6.13333,243.2
6.15000,243.2
6.16667,243.3
6.18333,243.4
6.20000,241.6
6.21667,242.1
6.23333,243.2
6.25000,243.2
6.26667,243.2
6.28333,241.0
6.30000,241.4
6.31667,241.5
6.33333,242.7
6.35000,243.2
6.36667,242.8
6.38333,242.8
6.40000,242.8
6.41667,241.2
6.43333,241.6
6.45000,242.7
6.46667,242.7
6.48333,242.8
6.50000,242.9
6.51667,242.9
6.53333,241.8
6.55000,242.0
6.56667,243.2
6.58333,243.3
6.60000,242.8
6.61667,242.5
6.63333,241.9
6.65000,241.6
6.66667,242.0
6.68333,243.3
6.70000,243.3
6.71667,243.3
6.73333,240.8
6.75000,241.6
6.76667,241.8
6.78333,241.8
6.80000,243.3
6.81667,243.4
6.83333,243.4
6.85000,241.6
6.86667,241.9
6.88333,242.0
6.90000,243.1
6.91667,243.3
6.93333,243.3
6.95000,240.6
6.96667,241.6
6.98333,242.4
7.00000,242.8
7.01667,242.8
7.03333,242.8
7.05000,240.4
7.06667,240.4
7.08333,240.4
7.10000,242.4
7.11667,242.4
7.13333,243.1
7.15000,243.1
7.16667,240.7
7.18333,240.7
7.20000,242.5
7.21667,242.4
7.23333,242.8
7.25000,243.2
7.26667,241.0
7.28333,241.1
7.30000,242.1
7.31667,242.5
7.33333,242.7
7.35000,242.7
7.36667,243.1
7.38333,240.7
7.40000,240.7
7.41667,241.6
7.43333,242.9
7.45000,242.5
7.46667,242.5
7.48333,241.0
7.50000,241.0
7.51667,241.1
7.53333,242.3
7.55000,243.1
7.56667,242.5
7.58333,242.9
7.60000,240.7
7.61667,241.4
7.63333,241.5
7.65000,242.5
7.66667,242.9
7.68333,242.8
7.70000,241.5
7.71667,241.5
7.73333,240.7
7.75000,240.7
7.76667,242.9
7.78333,242.9
7.80000,240.7
7.81667,240.7
7.83333,240.7
7.85000,241.4
7.86667,241.9
7.88333,242.9
7.90000,242.9
7.91667,242.5
7.93333,240.6
7.95000,241.5
7.96667,241.8
7.98333,242.4
8.00000,242.9
8.01667,243.2
8.03333,243.2
8.05000,241.4
8.06667,241.4
8.08333,241.8
8.10000,242.1
8.11667,242.1
8.13333,242.4
8.15000,242.4
8.16667,242.4
8.18333,241.8
8.20000,242.8
8.21667,242.9
8.23333,242.1
8.25000,240.3
8.26667,241.4
8.28333,242.1
8.30000,242.0
8.31667,242.7
8.33333,243.1
8.35000,241.8
8.36667,240.4
8.38333,240.4
8.40000,242.1
8.41667,241.8
8.43333,241.8
8.45000,243.1
8.46667,243.1
8.48333,241.1
8.50000,241.4
8.51667,242.1
8.53333,242.0
8.55000,242.7
8.56667,240.6
8.58333,240.4
8.60000,241.4
8.61667,241.4
8.63333,242.5
8.65000,242.4
8.66667,242.5
8.68333,240.6
8.70000,240.6
8.71667,241.4
8.73333,242.1
8.75000,242.1
8.76667,242.5
8.78333,242.5
8.80000,242.5
8.81667,240.8
8.83333,241.4
8.85000,242.5
8.86667,242.8
8.88333,242.4
8.90000,240.7
8.91667,240.7
8.93333,240.8
8.95000,242.1
8.96667,242.7
8.98333,242.8
9.00000,242.4
9.01667,240.7
9.03333,240.7
9.05000,241.4
9.06667,241.4
9.08333,242.8
9.10000,242.8
9.11667,242.8
9.13333,240.7
9.15000,240.7
9.16667,241.9
9.18333,242.8
9.20000,242.3
9.21667,241.2
9.23333,240.7
9.25000,241.4
9.26667,241.2
9.28333,242.3
9.30000,243.1
9.31667,243.1
9.33333,239.9
9.35000,241.1
9.36667,241.5
9.38333,241.5
9.40000,242.7
9.41667,242.7
9.43333,242.7
9.45000,239.9
9.46667,241.2
9.48333,241.5
9.50000,242.0
9.51667,242.5
9.53333,242.9
9.55000,240.1
9.56667,240.7
9.58333,241.1
9.60000,241.9
9.61667,241.8
9.63333,242.4
9.65000,242.8
9.66667,242.8
9.68333,241.1
9.70000,241.1
9.71667,241.1
9.73333,242.1
9.75000,242.1
9.76667,240.4
9.78333,240.1
9.80000,240.1
9.81667,241.8
9.83333,242.1
9.85000,242.1
9.86667,242.7
9.88333,240.3
9.90000,240.6
9.91667,240.8
9.93333,242.1
9.95000,242.0
9.96667,242.3
9.98333,242.5
10.00000,240.8
10.01667,240.6
10.03333,240.6
10.05000,242.7
10.06667,242.7
10.08333,242.7
10.10000,241.9
10.11667,241.9
10.13333,240.8
10.15000,242.5
10.16667,242.7
10.18333,242.3
10.20000,240.4
10.21667,241.1
10.23333,240.8
10.25000,241.9
10.26667,242.5
10.28333,242.3
10.30000,242.1
10.31667,240.4
10.33333,241.1
10.35000,241.1
10.36667,241.9
10.38333,241.9
10.40000,241.9
10.41667,242.0
10.43333,240.4
10.45000,241.1
10.46667,241.1
10.48333,242.5
10.50000,242.7
10.51667,242.8
10.53333,239.8
10.55000,241.0
10.56667,241.5
10.58333,241.2
10.60000,242.4
10.61667,242.5
10.63333,239.8
10.65000,240.2
10.66667,240.2
10.68333,241.4
10.70000,241.4
10.71667,241.4
10.73333,242.8
10.75000,242.4
10.76667,240.8
10.78333,240.8
10.80000,241.2
10.81667,241.6
10.83333,242.4
10.85000,242.0
10.86667,239.7
10.88333,240.7
10.90000,241.6
10.91667,242.0
10.93333,242.1
10.95000,242.7
10.96667,241.2
10.98333,239.9
11.00000,241.8
11.01667,241.8
11.03333,241.8
11.05000,242.1
11.06667,242.1
11.08333,242.1
11.10000,240.4
11.11667,240.4
11.13333,242.1
11.15000,242.0
11.16667,242.5
11.18333,240.1
11.20000,240.4
11.21667,241.2
11.23333,242.0
11.25000,242.0
11.26667,242.0
11.28333,242.4
11.30000,240.2
11.31667,240.2
11.33333,241.1
11.35000,241.1
11.36667,242.0
11.38333,242.1
11.40000,242.1
11.41667,240.2
11.43333,241.0
11.45000,241.8
11.46667,242.1
11.48333,241.9
11.50000,241.8
11.51667,240.1
11.53333,240.8
11.55000,241.0
11.56667,242.1
11.58333,242.4
11.60000,242.0
11.61667,241.0
11.63333,241.0
11.65000,241.0
11.66667,241.0
11.68333,242.4
11.70000,242.5
11.71667,242.5
11.73333,239.7
11.75000,239.7
11.76667,241.1
11.78333,241.5
11.80000,242.4
11.81667,242.4
11.83333,239.5
11.85000,240.3
11.86667,240.7
11.88333,241.1
11.90000,241.8
11.91667,242.3
11.93333,239.4
11.95000,239.4
11.96667,240.7
11.98333,240.7
12.00000,241.4
12.01667,241.6
12.03333,241.6
12.05000,239.7
12.06667,239.7
12.08333,240.7
12.10000,241.4
12.11667,241.4
12.13333,242.4
12.15000,240.1
12.16667,239.5
12.18333,240.7
12.20000,241.8
12.21667,241.6
12.23333,241.9
12.25000,242.3
12.26667,242.3
12.28333,240.2
12.30000,240.2
12.31667,240.2
12.33333,242.0
12.35000,241.8
12.36667,242.0
12.38333,242.0
12.40000,240.1
12.41667,240.3
12.43333,241.8
12.45000,241.6
12.46667,241.9
12.48333,239.9
12.50000,240.3
12.51667,240.1
12.53333,240.8
12.55000,242.1
12.56667,241.5
12.58333,241.8
12.60000,240.4
12.61667,240.4
12.63333,240.4
12.65000,241.8
12.66667,241.9
12.68333,241.8
12.70000,241.8
12.71667,240.6
12.73333,240.6
12.75000,240.6
12.76667,242.0
12.78333,242.1
12.80000,241.5
12.81667,239.5
12.83333,240.4
12.85000,240.4
12.86667,240.7
12.88333,241.9
12.90000,241.6
12.91667,241.6
12.93333,239.8
12.95000,239.8
12.96667,239.8
12.98333,240.7
13.00000,240.7
13.01667,242.3
13.03333,242.3
13.05000,240.4
13.06667,240.4
13.08333,241.4
13.10000,241.4
13.11667,241.4
13.13333,239.4
13.15000,240.3
13.16667,240.6
13.18333,241.0
13.20000,241.5
13.21667,241.9
13.23333,241.4
13.25000,239.8
13.26667,239.8
13.28333,239.8
13.30000,241.4
13.31667,241.4
13.33333,241.8
13.35000,239.3
13.36667,239.8
13.38333,239.8
13.40000,241.6
13.41667,241.6
13.43333,241.5
13.45000,242.1
13.46667,239.9
13.48333,240.1
13.50000,240.8
13.51667,241.6
13.53333,241.2
13.55000,241.6
13.56667,239.8
13.58333,239.8
13.60000,239.8
13.61667,240.7
13.63333,241.2
13.65000,241.4
13.66667,241.4
13.68333,239.7
13.70000,239.7
13.71667,239.7
13.73333,241.1
13.75000,241.4
13.76667,241.4
13.78333,241.8
13.80000,239.9
13.81667,239.9
13.83333,240.6
13.85000,242.0
13.86667,242.0
13.88333,241.2
13.90000,239.4
13.91667,239.4
13.93333,240.1
13.95000,241.4
13.96667,241.4
13.98333,241.4
14.00000,240.7
14.01667,239.3
14.03333,240.2
14.05000,240.3
14.06667,241.4
14.08333,241.4
14.10000,239.7
14.11667,239.0
14.13333,240.2
14.15000,240.4
14.16667,240.8
14.18333,241.9
14.20000,241.9
14.21667,239.0
14.23333,240.1
14.25000,240.3
14.26667,240.4
14.28333,240.8
14.30000,241.9
14.31667,241.9
14.33333,241.9
14.35000,240.1
14.36667,240.6
14.38333,240.8
14.40000,241.1
14.41667,241.8
14.43333,241.9
14.45000,239.8
14.46667,239.8
14.48333,241.1
14.50000,240.8
14.51667,241.5
14.53333,241.8
14.55000,239.0
14.56667,239.8
14.58333,240.7
14.60000,241.1
14.61667,240.7
14.63333,241.8
14.65000,239.4
14.66667,239.0
14.68333,239.8
14.70000,240.6
14.71667,240.6
14.73333,241.2
14.75000,241.4
14.76667,241.5
14.78333,239.4
14.80000,239.7
14.81667,240.4
14.83333,241.0
14.85000,241.2
14.86667,241.2
14.88333,239.4
14.90000,239.8
14.91667,239.8
14.93333,241.6
14.95000,241.5
14.96667,241.4
14.98333,239.4
15.00000,239.9

[LC Status Trace(Sample Cooler Temp.)]
Interval(msec),1000
# of Points,901
Start Time(min),0.000
End Time(min),15.000
Intensity Units,C
Intensity Multiplier,1
R.Time (min),Intensity
0.00000,18.86
0.01667,18.86
0.03333,18.86
0.05000,18.86
0.06667,18.86
0.08333,18.86
0.10000,18.89
0.11667,18.89
0.13333,18.89
0.15000,18.89
0.16667,18.89
0.18333,18.89
0.20000,18.89
0.21667,18.89
0.23333,18.89
0.25000,18.90
0.26667,18.90
0.28333,18.90
0.30000,18.90
0.31667,18.90
0.33333,18.90
0.35000,18.90
0.36667,18.90
0.38333,18.90
0.40000,18.90
0.41667,18.87
0.43333,18.87
0.45000,18.87
0.46667,18.87
0.48333,18.87
0.50000,18.87
0.51667,18.87
0.53333,18.87
0.55000,18.87
0.56667,18.92
0.58333,18.92
0.60000,18.92
0.61667,18.92
0.63333,18.92
0.65000,18.92
0.66667,18.92
0.68333,18.92
0.70000,18.92
0.71667,18.92
0.73333,18.92
0.75000,18.89
0.76667,18.89
0.78333,18.89
0.80000,18.89
0.81667,18.89
0.83333,18.89
0.85000,18.89
0.86667,18.89
0.88333,18.89
0.90000,18.92
0.91667,18.92
0.93333,18.92
0.95000,18.92
0.96667,18.92
0.98333,18.92
1.00000,18.92
1.01667,18.92
1.03333,18.92
1.05000,18.92
1.06667,18.93
1.08333,18.93
1.10000,18.93
1.11667,18.93
1.13333,18.93
1.15000,18.93
1.16667,18.93
1.18333,18.93
1.20000,18.93
1.21667,18.93
1.23333,18.93
1.25000,18.94
1.26667,18.94
1.28333,18.94
1.30000,18.94
1.31667,18.94
1.33333,18.94
1.35000,18.94
1.36667,18.94
1.38333,18.94
1.40000,18.94
1.41667,18.94
1.43333,18.94
1.45000,18.94
1.46667,18.94
1.48333,18.94
1.50000,18.94
1.51667,18.94
1.53333,18.94
1.55000,18.94
1.56667,18.93
1.58333,18.93
1.60000,18.93
1.61667,18.93
1.63333,18.93
1.65000,18.93
1.66667,18.93
1.68333,18.93
1.70000,18.93
1.71667,18.93
1.73333,18.96
1.75000,18.96
1.76667,18.96
1.78333,18.96
1.80000,18.96
1.81667,18.96
1.83333,18.96
1.85000,18.96
1.86667,18.96
1.88333,18.96
1.90000,18.94
1.91667,18.94
1.93333,18.94
1.95000,18.94
1.96667,18.94
1.98333,18.94
2.00000,18.94
2.01667,18.94
2.03333,18.94
2.05000,18.94
2.06667,18.95
2.08333,18.95
2.10000,18.95
2.11667,18.95
2.13333,18.95
2.15000,18.95
2.16667,18.95
2.18333,18.95
2.20000,18.95
2.21667,18.95
2.23333,18.95
2.25000,18.95
2.26667,18.95
2.28333,18.95
2.30000,18.95
2.31667,18.95
2.33333,18.95
2.35000,18.95
2.36667,18.95
2.38333,18.95
2.40000,18.95
2.41667,18.95
2.43333,18.95
2.45000,18.95
2.46667,18.95
2.48333,18.95
2.50000,18.95
2.51667,18.95
2.53333,18.95
2.55000,18.95
2.56667,18.99
2.58333,18.99
2.60000,18.99
2.61667,18.99
2.63333,18.99
2.65000,18.99
2.66667,18.99
2.68333,18.99
2.70000,18.99
2.71667,18.99
2.73333,18.98
2.75000,18.98
2.76667,18.98
2.78333,18.98
2.80000,18.98
2.81667,18.98
2.83333,18.98
2.85000,18.98
2.86667,18.98
2.88333,18.98
2.90000,18.99
2.91667,18.99
2.93333,18.99
2.95000,18.99
2.96667,18.99
2.98333,18.99
3.00000,18.99
3.01667,18.99
3.03333,18.99
3.05000,18.99
3.06667,18.99
3.08333,18.99
3.10000,18.99
3.11667,18.99
3.13333,18.99
3.15000,18.99
3.16667,18.99
3.18333,18.99
3.20000,18.99
3.21667,18.99
3.23333,18.99
3.25000,18.99
3.26667,18.99
3.28333,18.99
3.30000,18.99
3.31667,18.99
3.33333,18.99
3.35000,18.99
3.36667,18.99
3.38333,18.99
3.40000,19.00
3.41667,19.00
3.43333,19.00
3.45000,19.00
3.46667,19.00
3.48333,19.00
3.50000,19.00
3.51667,19.00
3.53333,19.00
3.55000,19.00
3.56667,18.99
3.58333,18.99
3.60000,18.99
3.61667,18.99
3.63333,18.99
3.65000,18.99
3.66667,18.99
3.68333,18.99
3.70000,18.99
3.71667,18.99
3.73333,18.99
3.75000,18.99
3.76667,18.99
3.78333,18.99
3.80000,18.99
3.81667,18.99
3.83333,18.99
3.85000,18.99
3.86667,18.99
3.88333,18.99
3.90000,19.01
3.91667,19.01
3.93333,19.01
3.95000,19.01
3.96667,19.01
3.98333,19.01
4.00000,19.01
4.01667,19.01
4.03333,19.01
4.05000,19.01
4.06667,19.02
4.08333,19.02
4.10000,19.02
4.11667,19.02
4.13333,19.02
4.15000,19.02
4.16667,19.02
4.18333,19.02
4.20000,19.02
4.21667,19.02
4.23333,19.00
4.25000,19.00
4.26667,19.00
4.28333,19.00
4.30000,19.00
4.31667,19.00
4.33333,19.00
4.35000,19.00
4.36667,19.00
4.38333,19.00
4.40000,19.02
4.41667,19.02
4.43333,19.02
4.45000,19.02
4.46667,19.02
4.48333,19.02
4.50000,19.02
4.51667,19.02
4.53333,19.02
4.55000,19.02
4.56667,19.04
4.58333,19.04
4.60000,19.04
4.61667,19.04
4.63333,19.04
4.65000,19.04
4.66667,19.04
4.68333,19.04
4.70000,19.04
4.71667,19.04
4.73333,19.04
4.75000,19.04
4.76667,19.04
4.78333,19.04
4.80000,19.04
4.81667,19.04
4.83333,19.04
4.85000,19.04
4.86667,19.04
4.88333,19.04
4.90000,19.04
4.91667,19.04
4.93333,19.04
4.95000,19.04
4.96667,19.04
4.98333,19.04
5.00000,19.04
5.01667,19.04
5.03333,19.04
5.05000,19.04
5.06667,19.04
5.08333,19.04
5.10000,19.04
5.11667,19.04
5.13333,19.04
5.15000,19.04
5.16667,19.04
5.18333,19.04
5.20000,19.04
5.21667,19.04
5.23333,19.07
5.25000,19.07
5.26667,19.07
5.28333,19.07
5.30000,19.07
5.31667,19.07
5.33333,19.07
5.35000,19.07
5.36667,19.07
5.38333,19.07
5.40000,19.04
5.41667,19.04
5.43333,19.04
5.45000,19.04
5.46667,19.04
5.48333,19.04
5.50000,19.04
5.51667,19.04
5.53333,19.04
5.55000,19.04
5.56667,19.06
5.58333,19.06
5.60000,19.06
5.61667,19.06
5.63333,19.06
5.65000,19.06
5.66667,19.06
5.68333,19.06
5.70000,19.06
5.71667,19.06
5.73333,19.04
5.75000,19.04
5.76667,19.04
5.78333,19.04
5.80000,19.04
5.81667,19.04
5.83333,19.04
5.85000,19.04
5.86667,19.04
5.88333,19.04
5.90000,19.08
5.91667,19.08
5.93333,19.08
5.95000,19.08
5.96667,19.08
5.98333,19.08
6.00000,19.08
6.01667,19.08
6.03333,19.08
6.05000,19.08
6.06667,19.08
6.08333,19.08
6.10000,19.08
6.11667,19.08
6.13333,19.08
6.15000,19.08
6.16667,19.08
6.18333,19.08
6.20000,19.08
6.21667,19.08
6.23333,19.07
6.25000,19.07
6.26667,19.07
6.28333,19.07
6.30000,19.07
6.31667,19.07
6.33333,19.07
6.35000,19.07
6.36667,19.07
6.38333,19.07
6.40000,19.09
6.41667,19.09
6.43333,19.09
6.45000,19.09
6.46667,19.09
6.48333,19.09
6.50000,19.09
6.51667,19.09
6.53333,19.09
6.55000,19.09
6.56667,19.08
6.58333,19.08
6.60000,19.08
6.61667,19.08
6.63333,19.08
6.65000,19.08
6.66667,19.08
6.68333,19.08
6.70000,19.08
6.71667,19.08
6.73333,19.12
6.75000,19.12
6.76667,19.12
6.78333,19.12
6.80000,19.12
6.81667,19.12
6.83333,19.12
6.85000,19.12
6.86667,19.12
6.88333,19.12
6.90000,19.10
6.91667,19.10
6.93333,19.10
6.95000,19.10
6.96667,19.10
6.98333,19.10
7.00000,19.10
7.01667,19.10
7.03333,19.10
7.05000,19.10
7.06667,19.11
7.08333,19.11
7.10000,19.11
7.11667,19.11
7.13333,19.11
7.15000,19.11
7.16667,19.11
7.18333,19.11
7.20000,19.11
7.21667,19.11
7.23333,19.12
7.25000,19.12
7.26667,19.12
7.28333,19.12
7.30000,19.12
7.31667,19.12
7.33333,19.12
7.35000,19.12
7.36667,19.12
7.38333,19.12
7.40000,19.12
7.41667,19.12
7.43333,19.12
7.45000,19.12
7.46667,19.12
7.48333,19.12
7.50000,19.12
7.51667,19.12
7.53333,19.12
7.55000,19.12
7.56667,19.14
7.58333,19.14
7.60000,19.14
7.61667,19.14
7.63333,19.14
7.65000,19.14
7.66667,19.14
7.68333,19.14
7.70000,19.14
7.71667,19.14
7.73333,19.15
7.75000,19.15
7.76667,19.15
7.78333,19.15
7.80000,19.15
7.81667,19.15
7.83333,19.15
7.85000,19.15
7.86667,19.15
7.88333,19.15
7.90000,19.16
7.91667,19.16
7.93333,19.16
7.95000,19.16
7.96667,19.16
7.98333,19.16
8.00000,19.16
8.01667,19.16
8.03333,19.16
8.05000,19.16
8.06667,19.15
8.08333,19.15
8.10000,19.15
8.11667,19.15
8.13333,19.15
8.15000,19.15
8.16667,19.15
8.18333,19.15
8.20000,19.15
8.21667,19.15
8.23333,19.16
8.25000,19.16
8.26667,19.16
8.28333,19.16
8.30000,19.16
8.31667,19.16
8.33333,19.16
8.35000,19.16
8.36667,19.16
8.38333,19.16
8.40000,19.15
8.41667,19.15
8.43333,19.15
8.45000,19.15
8.46667,19.15
8.48333,19.15
8.50000,19.15
8.51667,19.15
8.53333,19.15
8.55000,19.15
8.56667,19.17
8.58333,19.17
8.60000,19.17
8.61667,19.17
8.63333,19.17
8.65000,19.17
8.66667,19.17
8.68333,19.17
8.70000,19.17
8.71667,19.17
8.73333,19.16
8.75000,19.16
8.76667,19.16
8.78333,19.16
8.80000,19.16
8.81667,19.16
8.83333,19.16
8.85000,19.16
8.86667,19.16
8.88333,19.16
8.90000,19.16
8.91667,19.16
8.93333,19.16
8.95000,19.16
8.96667,19.16
8.98333,19.16
9.00000,19.16
9.01667,19.16
9.03333,19.16
9.05000,19.16
9.06667,19.18
9.08333,19.18
9.10000,19.18
9.11667,19.18
9.13333,19.18
9.15000,19.18
9.16667,19.18
9.18333,19.18
9.20000,19.18
9.21667,19.18
9.23333,19.19
9.25000,19.19
9.26667,19.19
9.28333,19.19
9.30000,19.19
9.31667,19.19
9.33333,19.19
9.35000,19.19
9.36667,19.19
9.38333,19.19
9.40000,19.20
9.41667,19.20
9.43333,19.20
9.45000,19.20
9.46667,19.20
9.48333,19.20
9.50000,19.20
9.51667,19.20
9.53333,19.20
9.55000,19.20
9.56667,19.21
9.58333,19.21
9.60000,19.21
9.61667,19.21
9.63333,19.21
9.65000,19.21
9.66667,19.21
9.68333,19.21
9.70000,19.21
9.71667,19.23
9.73333,19.23
9.75000,19.23
9.76667,19.23
9.78333,19.23
9.80000,19.23
9.81667,19.23
9.83333,19.23
9.85000,19.23
9.86667,19.23
9.88333,19.23
9.90000,19.23
9.91667,19.23
9.93333,19.23
9.95000,19.23
9.96667,19.23
9.98333,19.23
10.00000,19.23
10.01667,19.23
10.03333,19.23
10.05000,19.23
10.06667,19.25
10.08333,19.25
10.10000,19.25
10.11667,19.25
10.13333,19.25
10.15000,19.25
10.16667,19.25
10.18333,19.25
10.20000,19.25
10.21667,19.25
10.23333,19.28
10.25000,19.28
10.26667,19.28
10.28333,19.28
10.30000,19.28
10.31667,19.28
10.33333,19.28
10.35000,19.28
10.36667,19.28
10.38333,19.28
10.40000,19.31
10.41667,19.31
10.43333,19.31
10.45000,19.31
10.46667,19.31
10.48333,19.31
10.50000,19.31
10.51667,19.31
10.53333,19.31
10.55000,19.31
10.56667,19.35
10.58333,19.35
10.60000,19.35
10.61667,19.35
10.63333,19.35
10.65000,19.35
10.66667,19.35
10.68333,19.35
10.70000,19.35
10.71667,19.37
10.73333,19.37
10.75000,19.37
10.76667,19.37
10.78333,19.37
10.80000,19.37
10.81667,19.37
10.83333,19.37
10.85000,19.37
10.86667,19.37
10.88333,19.37
10.90000,19.39
10.91667,19.39
10.93333,19.39
10.95000,19.39
10.96667,19.39
10.98333,19.39
11.00000,19.39
11.01667,19.39
11.03333,19.39
11.05000,19.39
11.06667,19.40
11.08333,19.40
11.10000,19.40
11.11667,19.40
11.13333,19.40
11.15000,19.40
11.16667,19.40
11.18333,19.40
11.20000,19.40
11.21667,19.40
11.23333,19.40
11.25000,19.40
11.26667,19.40
11.28333,19.40
11.30000,19.40
11.31667,19.40
11.33333,19.40
11.35000,19.40
11.36667,19.40
11.38333,19.42
11.40000,19.42
11.41667,19.42
11.43333,19.42
11.45000,19.42
11.46667,19.42
11.48333,19.42
11.50000,19.42
11.51667,19.42
11.53333,19.42
11.55000,19.42
11.56667,19.41
11.58333,19.41
11.60000,19.41
11.61667,19.41
11.63333,19.41
11.65000,19.41
11.66667,19.41
11.68333,19.41
11.70000,19.41
11.71667,19.45
11.73333,19.45
11.75000,19.45
11.76667,19.45
11.78333,19.45
11.80000,19.45
11.81667,19.45
11.83333,19.45
11.85000,19.45
11.86667,19.45
11.88333,19.45
11.90000,19.45
11.91667,19.45
11.93333,19.45
11.95000,19.45
11.96667,19.45
11.98333,19.45
12.00000,19.45
12.01667,19.45
12.03333,19.45
12.05000,19.45
12.06667,19.45
12.08333,19.45
12.10000,19.45
12.11667,19.45
12.13333,19.45
12.15000,19.45
12.16667,19.45
12.18333,19.45
12.20000,19.45
12.21667,19.48
12.23333,19.48
12.25000,19.48
12.26667,19.48
12.28333,19.48
12.30000,19.48
12.31667,19.48
12.33333,19.48
12.35000,19.48
12.36667,19.48
12.38333,19.48
12.40000,19.48
12.41667,19.48
12.43333,19.48
12.45000,19.48
12.46667,19.48
12.48333,19.48
12.50000,19.48
12.51667,19.48
12.53333,19.48
12.55000,19.48
12.56667,19.48
12.58333,19.48
12.60000,19.48
12.61667,19.48
12.63333,19.48
12.65000,19.48
12.66667,19.48
12.68333,19.48
12.70000,19.48
12.71667,19.46
12.73333,19.46
12.75000,19.46
12.76667,19.46
12.78333,19.46
12.80000,19.46
12.81667,19.46
12.83333,19.46
12.85000,19.46
12.86667,19.46
12.88333,19.46
12.90000,19.46
12.91667,19.46
12.93333,19.46
12.95000,19.46
12.96667,19.46
12.98333,19.46
13.00000,19.46
13.01667,19.46
13.03333,19.46
13.05000,19.49
13.06667,19.49
13.08333,19.49
13.10000,19.49
13.11667,19.49
13.13333,19.49
13.15000,19.49
13.16667,19.49
13.18333,19.49
13.20000,19.49
13.21667,19.52
13.23333,19.52
13.25000,19.52
13.26667,19.52
13.28333,19.52
13.30000,19.52
13.31667,19.52
13.33333,19.52
13.35000,19.52
13.36667,19.52
13.38333,19.53
13.40000,19.53
13.41667,19.53
13.43333,19.53
13.45000,19.53
13.46667,19.53
13.48333,19.53
13.50000,19.53
13.51667,19.53
13.53333,19.53
13.55000,19.52
13.56667,19.52
13.58333,19.52
13.60000,19.52
13.61667,19.52
13.63333,19.52
13.65000,19.52
13.66667,19.52
13.68333,19.52
13.70000,19.52
13.71667,19.56
13.73333,19.56
13.75000,19.56
13.76667,19.56
13.78333,19.56
13.80000,19.56
13.81667,19.56
13.83333,19.56
13.85000,19.56
13.86667,19.56
13.88333,19.54
13.90000,19.54
13.91667,19.54
13.93333,19.54
13.95000,19.54
13.96667,19.54
13.98333,19.54
14.00000,19.54
14.01667,19.54
14.03333,19.54
14.05000,19.54
14.06667,19.54
14.08333,19.54
14.10000,19.54
14.11667,19.54
14.13333,19.54
14.15000,19.54
14.16667,19.54
14.18333,19.54
14.20000,19.54
14.21667,19.54
14.23333,19.54
14.25000,19.54
14.26667,19.54
14.28333,19.54
14.30000,19.54
14.31667,19.54
14.33333,19.54
14.35000,19.54
14.36667,19.54
14.38333,19.57
14.40000,19.57
14.41667,19.57
14.43333,19.57
14.45000,19.57
14.46667,19.57
14.48333,19.57
14.50000,19.57
14.51667,19.57
14.53333,19.57
14.55000,19.57
14.56667,19.57
14.58333,19.57
14.60000,19.57
14.61667,19.57
14.63333,19.57
14.65000,19.57
14.66667,19.57
14.68333,19.57
14.70000,19.57
14.71667,19.56
14.73333,19.56
14.75000,19.56
14.76667,19.56
14.78333,19.56
14.80000,19.56
14.81667,19.56
14.83333,19.56
14.85000,19.56
14.86667,19.56
14.88333,19.58
14.90000,19.58
14.91667,19.58
14.93333,19.58
14.95000,19.58
14.96667,19.58
14.98333,19.58
15.00000,19.58

[Fraction Collection Report]
# of Fractions,0

