D:\MassHunter\GCMS\1\data\Elizabeth\B06\24.06.06\RAU-R505-10.D 06 Jun 24  06:11 pm
Start of data points
1.09285,27946584
1.09862,27462036
1.1044,26565406
1.11017,25966218
1.11595,25394810
1.12172,24930826
1.1275,24181930
1.13327,23718806
1.13905,23311708
1.14482,22911716
1.1506,23231092
1.15637,24084436
1.16215,639958
1.16792,512780
1.1737,459609
1.17947,441545
1.18525,514621
1.19102,706975
1.1968,1045699
1.20257,1402096
1.20835,2114153
1.21412,1291346
1.2199,270507
1.22568,206745
1.23145,191857
1.23723,176681
1.243,174813
1.24878,302082
1.25455,709183
1.26033,1358113
1.2661,718898
1.27188,163812
1.27765,120039
1.28343,109980
1.2892,104418
1.29498,97578
1.30075,92270
1.30653,86956
1.3123,82624
1.31808,78893
1.32385,116358
1.32963,284350
1.3354,415295
1.34118,148744
1.34697,70677
1.35273,60255
1.35852,55377
1.36428,52240
1.37007,51456
1.37583,49575
1.38162,46900
1.38738,45538
1.39317,43330
1.39893,42422
1.40472,40511
1.41048,38210
1.41627,37494
1.42203,35190
1.42782,34024
1.43358,32502
1.43937,56227
1.44513,228503
1.45092,210915
1.45668,137870
1.46247,75241
1.46823,35886
1.47402,26832
1.4798,29619
1.48557,135373
1.49135,748763
1.49712,1111977
1.5029,491035
1.50867,130307
1.51445,44611
1.52022,23809
1.526,25269
1.53177,31154
1.53755,28386
1.54332,20571
1.5491,18301
1.55487,17270
1.56065,16514
1.56642,15278
1.5722,15591
1.57797,15207
1.58375,14576
1.58952,13858
1.5953,14708
1.60108,13617
1.60685,12706
1.61263,13983
1.6184,12250
1.62418,12388
1.62995,12925
1.63573,11393
1.6415,11706
1.64728,11022
1.65305,10767
1.65883,10751
1.6646,10845
1.67038,13045
1.67615,20770
1.68193,22496
1.6877,15014
1.69348,10603
1.69925,10267
1.70503,8899
1.7108,8635
1.71658,9229
1.72235,9225
1.72813,13928
1.73392,266356
1.73968,1969887
1.74547,3231693
1.75123,1993663
1.75702,729418
1.76278,238836
1.76857,75561
1.77433,26969
1.78012,28727
1.78588,56150
1.79167,57662
1.79743,41529
1.80322,43318
1.80898,40920
1.81477,25899
1.82053,14220
1.82632,8999
1.83208,6721
1.83787,8338
1.84363,18160
1.84942,42419
1.8552,55661
1.86097,38670
1.86675,31067
1.87252,42933
1.8783,40374
1.88407,22810
1.88985,12047
1.89562,7927
1.9014,6237
1.90717,5845
1.91295,6043
1.91872,5434
1.9245,4920
1.93027,4910
1.93605,5069
1.94182,5385
1.9476,9721
1.95337,23031
1.95915,34121
1.96492,26518
1.9707,14401
1.97647,9075
1.98225,11270
1.98803,20105
1.9938,21412
1.99958,14684
2.00535,9994
2.01113,12074
2.0169,23248
2.02268,29899
2.02845,22617
2.03423,12991
2.04,7613
2.04578,5263
2.05155,3787
2.05733,4465
2.0631,4378
2.06888,4065
2.07465,4083
2.08043,4322
2.0862,4052
2.09198,4058
2.09775,3780
2.10353,3928
2.1093,4012
2.11508,3538
2.12087,4148
2.12663,3812
2.13242,3893
2.13818,3463
2.14397,3456
2.14973,3668
2.15552,4192
2.16128,4093
2.16707,3833
2.17283,3871
2.17862,4147
2.18438,3263
2.19017,3710
2.19593,3863
2.20172,3579
2.20748,3466
2.21327,3584
2.21903,3426
2.22482,3391
2.23058,3481
2.23637,3316
2.24215,3604
2.24792,3372
2.2537,3553
2.25947,3458
2.26525,2964
2.27102,3422
2.2768,3278
2.28257,3065
2.28835,2909
2.29412,2903
2.2999,3343
2.30567,3055
2.31145,3751
2.31722,3000
2.323,2885
2.32877,3078
2.33455,3721
2.34032,2971
2.3461,2905
2.35187,3200
2.35765,2791
2.36342,3006
2.3692,3204
2.37498,2678
2.38075,3066
2.38653,2779
2.3923,2770
2.39808,2691
2.40385,2930
2.40963,2700
2.4154,3019
2.42118,2235
2.42695,2766
2.43273,2678
2.4385,2599
2.44428,2395
2.45005,2376
2.45583,2939
2.4616,2817
2.46738,2966
2.47315,2937
2.47893,2912
2.4847,2518
2.49048,2610
2.49627,2690
2.50203,2492
2.50782,2718
2.51358,2434
2.51937,2240
2.52513,2387
2.53092,2662
2.53668,2528
2.54247,2295
2.54823,2243
2.55402,2298
2.55978,2486
2.56557,2751
2.57133,2034
2.57712,2501
2.58288,2377
2.58867,2463
2.59443,2261
2.60022,2261
2.60598,2472
2.61177,2132
2.61753,2127
2.62332,2509
2.6291,2021
2.63487,2487
2.64065,2243
2.64642,2154
2.6522,2341
2.65797,2498
2.66375,2280
2.66952,1998
2.6753,2609
2.68107,2191
2.68685,2112
2.69262,1985
2.6984,2203
2.70417,2045
2.70995,1956
2.71572,2011
2.7215,2332
2.72727,1821
2.73305,1945
2.73882,2153
2.7446,1959
2.75038,2005
2.75615,2075
2.76193,1831
2.7677,1815
2.77348,2172
2.77925,1789
2.78503,1870
2.7908,2060
2.79658,2188
2.80235,2085
2.80813,1893
2.8139,2059
2.81968,1847
2.82545,2146
2.83123,1830
2.837,2044
2.84278,2159
2.84855,1947
2.85433,2185
2.8601,1939
2.86588,1971
2.87165,1628
2.87743,2047
2.88322,1908
2.88898,1736
2.89477,1949
2.90053,1787
2.90632,1551
2.91208,1783
2.91787,1754
2.92363,1697
2.92942,1961
2.93518,1962
2.94097,1873
2.94673,1799
2.95252,1824
2.95828,1882
2.96407,1838
2.96983,1928
2.97562,1779
2.98138,1551
2.98717,1620
2.99293,1583
2.99872,1770
3.00448,1446
3.01027,1778
3.01605,1698
3.02182,1453
3.0276,1533
3.03337,1552
3.03915,1792
3.04492,1535
3.0507,1656
3.05647,1490
3.06225,1684
3.06802,1457
3.0738,1269
3.07957,1361
3.08535,1387
3.09112,1670
3.0969,1272
3.10267,1654
3.10845,1662
3.11422,1583
3.12,1874
3.12577,1588
3.13155,1618
3.13733,1629
3.1431,1330
3.14888,1795
3.15465,1705
3.16043,1444
3.1662,1071
3.17198,1491
3.17775,1480
3.18353,1504
3.1893,1313
3.19508,1558
3.20085,1575
3.20663,1451
3.2124,1297
3.21818,1590
3.22395,1735
3.22973,1747
3.2355,2017
3.24128,1426
3.24705,1650
3.25283,1833
3.2586,1561
3.26438,1753
3.27017,1319
3.27593,1443
3.28172,1425
3.28748,1573
3.29327,1156
3.29903,1640
3.30482,1194
3.31058,1502
3.31637,1330
3.32213,1833
3.32792,1214
3.33368,1659
3.33947,1217
3.34523,1502
3.35102,1556
3.35678,1349
3.36257,1597
3.36833,1482
3.37412,1600
3.37988,1249
3.38567,1462
3.39145,1137
3.39722,1317
3.403,997
3.40877,1311
3.41455,1247
3.42032,1083
3.4261,1608
3.43187,1168
3.43765,1046
3.44342,1132
3.4492,1465
3.45497,1171
3.46075,1115
3.46652,1440
3.4723,1629
3.47807,1437
3.48385,1366
3.48962,1148
3.4954,639
3.50117,1464
3.50695,979
3.51272,1290
3.5185,1424
3.52428,1225
3.53005,1074
3.53583,1456
3.5416,1391
3.54738,1140
3.55315,1389
3.55893,799
3.5647,1107
3.57048,1419
3.57625,1218
3.58203,1480
3.5878,1361
3.59358,791
3.59935,1153
3.60513,1063
3.6109,1052
3.61668,1235
3.62245,1002
3.62823,1321
3.634,857
3.63978,1445
3.64557,852
3.65133,1051
3.65712,1374
3.66288,1234
3.66867,1037
3.67443,652
3.68022,936
3.68598,1055
3.69177,818
3.69753,946
3.70332,1053
3.70908,607
3.71487,1056
3.72063,563
3.72642,1093
3.73218,665
3.73797,925
3.74373,694
3.74952,1127
3.75528,1152
3.76107,1090
3.76683,1010
3.77262,1004
3.7784,779
3.78417,1157
3.78995,737
3.79572,502
3.8015,871
3.80727,1035
3.81305,1000
3.81882,1051
3.8246,937
3.83037,898
3.83615,957
3.84192,933
3.8477,944
3.85347,801
3.85925,1321
3.86502,593
3.8708,652
3.87657,1115
3.88235,704
3.88812,887
3.8939,1491
3.89967,1104
3.90545,1216
3.91123,1009
3.917,1021
3.92278,1076
3.92855,907
3.93433,682
3.9401,781
3.94588,745
3.95165,806
3.95743,771
3.9632,910
3.96898,589
3.97475,656
3.98053,885
3.9863,885
3.99208,745
3.99785,1141
4.00363,727
4.0094,1019
4.01518,798
4.02095,710
4.02673,879
4.0325,664
4.03828,848
4.04407,1065
4.04983,590
4.05562,1018
4.06138,949
4.06717,955
4.07293,931
4.07872,24530
4.08448,24387
4.09027,22994
4.09603,22191
4.10182,20235
4.10758,19602
4.11337,18138
4.11913,16964
4.12492,15265
4.13068,14100
4.13647,12510
4.14223,12177
4.14802,11836
4.15378,10914
4.15957,10489
4.16535,9859
4.17112,9219
4.1769,7584
4.18267,8461
4.18845,6815
4.19422,7163
4.2,7287
4.20577,5969
4.21155,6247
4.21732,5611
4.2231,5839
4.22887,5672
4.23465,5342
4.24042,4810
4.2462,4667
4.25197,4257
4.25775,4576
4.26352,4497
4.2693,4227
4.27507,4308
4.28085,3855
4.28662,3865
4.2924,3494
4.29818,3574
4.30395,3455
4.30973,3232
4.3155,3272
4.32128,2943
4.32705,2905
4.33283,3071
4.3386,2925
4.34438,2986
4.35015,2979
4.35593,2836
4.3617,2987
4.36748,2978
4.37325,2261
4.37903,2333
4.3848,2361
4.39058,2665
4.39635,2968
4.40213,2585
4.4079,2594
4.41368,2194
4.41947,2352
4.42523,1734
4.43102,2562
4.43678,2291
4.44257,1811
4.44833,2344
4.45412,2386
4.45988,2135
4.46567,2427
4.47143,2517
4.47722,2179
4.48298,1766
4.48877,1747
4.49453,2023
4.50032,1803
4.50608,2234
4.51187,1946
4.51763,2265
4.52342,2234
4.52918,2198
4.53497,2138
4.54073,1753
4.54652,1971
4.5523,2211
4.55807,1938
4.56385,1778
4.56962,2171
4.5754,1614
4.58117,1619
4.58695,2152
4.59272,1849
4.5985,1929
4.60427,1897
4.61005,1872
4.61582,2021
4.6216,1938
4.62737,1720
4.63315,1726
4.63892,1531
4.6447,1646
4.65047,1781
4.65625,1778
4.66202,1597
4.6678,1976
4.67358,1400
4.67935,1396
4.68513,1705
4.6909,1815
4.69668,1912
4.70245,1663
4.70823,1273
4.714,1813
4.71978,1938
4.72555,1947
4.73133,1544
4.7371,1975
4.74288,1319
4.74865,1457
4.75443,1598
4.7602,1439
4.76598,1454
4.77175,1456
4.77753,2008
4.7833,1141
4.78908,1494
4.79485,1227
4.80063,1704
4.80642,1245
4.81218,1568
4.81797,1890
4.82373,2192
4.82952,2452
4.83528,2106
4.84107,2269
4.84683,1461
4.85262,1608
4.85838,982
4.86417,1365
4.86993,1734
4.87572,1398
4.88148,1495
4.88727,1741
4.89303,1343
4.89882,1622
4.90458,1657
4.91037,1452
4.91613,1056
4.92192,1565
4.92768,1249
4.93347,1386
4.93925,1363
4.94502,882
4.9508,1210
4.95657,1050
4.96235,1291
4.96812,1518
4.9739,1320
4.97967,1126
4.98545,1436
4.99122,1471
4.997,1338
5.00277,1704
5.00855,1768
5.01432,1553
5.0201,1408
5.02587,1552
5.03165,1060
5.03742,1485
5.0432,1437
5.04897,1494
5.05475,1192
5.06053,1513
5.0663,1218
5.07208,1315
5.07785,1322
5.08363,1453
5.0894,1288
5.09518,924
5.10095,1213
5.10673,1571
5.1125,1461
5.11828,1250
5.12405,1382
5.12983,1451
5.1356,1466
5.14138,1603
5.14715,1594
5.15293,1337
5.1587,1535
5.16448,1514
5.17025,1584
5.17603,850
5.1818,1644
5.18758,1299
5.19337,1558
5.19913,1509
5.20492,1597
5.21068,1611
5.21647,1377
5.22223,1518
5.22802,1043
5.23378,1418
5.23957,1304
5.24533,1136
5.25112,1023
5.25688,1205
5.26267,962
5.26843,992
5.27422,1496
5.27998,1453
5.28577,1366
5.29153,1199
5.29732,1357
5.30308,1092
5.30887,1100
5.31465,1342
5.32042,1175
5.3262,1263
5.33197,1300
5.33775,1004
5.34352,1232
5.3493,882
5.35507,1220
5.36085,1192
5.36662,1627
5.3724,1467
5.37817,1453
5.38395,1288
5.38972,1052
5.3955,1287
5.40127,1294
5.40705,1449
5.41282,1282
5.4186,1331
5.42437,1183
5.43015,1239
5.43592,1425
5.4417,1415
5.44748,1216
5.45325,1513
5.45903,1556
5.4648,1301
5.47058,1234
5.47635,1043
5.48213,1300
5.4879,1132
5.49368,1648
5.49945,1373
5.50523,1386
5.511,1265
5.51678,1363
5.52255,1194
5.52833,1271
5.5341,1284
5.53988,1259
5.54565,1498
5.55143,1268
5.5572,1100
5.56298,1425
5.56877,1495
5.57453,1513
5.58032,1502
5.58608,1355
5.59187,1711
5.59763,1444
5.60342,1450
5.60918,1660
5.61497,1665
5.62073,1222
5.62652,1419
5.63228,1127
5.63807,1122
5.64383,1592
5.64962,1688
5.65538,1971
5.66117,1656
5.66693,1695
5.67272,1774
5.67848,1538
5.68427,1606
5.69003,1764
5.69582,1743
5.7016,1520
5.70737,1802
5.71315,1538
5.71892,2149
5.7247,1954
5.73047,1835
5.73625,1886
5.74202,1377
5.7478,1789
5.75357,1772
5.75935,1530
5.76512,2045
5.7709,1360
5.77667,1762
5.78245,2192
5.78822,2092
5.794,1572
5.79977,1699
5.80555,2136
5.81132,1754
5.8171,1477
5.82287,1466
5.82865,1382
5.83443,1501
5.8402,1758
5.84598,1981
5.85175,1393
5.85753,1920
5.8633,2048
5.86908,1701
5.87485,1477
5.88063,1355
5.8864,1815
5.89218,1516
5.89795,1376
5.90373,1752
5.9095,1215
5.91528,1488
5.92105,1535
5.92683,1731
5.9326,1260
5.93838,1471
5.94415,1470
5.94993,1299
5.95572,1435
5.96148,1507
5.96727,1589
5.97303,1264
5.97882,1276
5.98458,1685
5.99037,1416
5.99613,1631
6.00192,951
6.00768,1194
6.01347,1294
6.01923,1719
6.02502,1208
6.03078,1177
6.03657,1381
6.04233,1368
6.04812,319481
6.05388,1383154
6.05967,805216
6.06543,322606
6.07122,168457
6.07698,108428
6.08277,76867
6.08855,59301
6.09432,44576
6.1001,36440
6.10587,29052
6.11165,25573
6.11742,22746
6.1232,18122
6.12897,16876
6.13475,15325
6.14052,13243
6.1463,12089
6.15207,11106
6.15785,10014
6.16362,9138
6.1694,8966
6.17517,8715
6.18095,8011
6.18672,7427
6.1925,7022
6.19827,7334
6.20405,6439
6.20983,5706
6.2156,5042
6.22138,5228
6.22715,5013
6.23293,4706
6.2387,4645
6.24448,4793
6.25025,4617
6.25603,6986
6.2618,5729
6.26758,4876
6.27335,4192
6.27913,4152
6.2849,4572
6.29068,97295
6.29645,820962
6.30223,1172493
6.308,360576
6.31378,65537
6.31955,19872
6.32533,12753
6.3311,7958
6.33688,6995
6.34267,6323
6.34843,5559
6.35422,4960
6.35998,4322
6.36577,4160
6.37153,3753
6.37732,3388
6.38308,3199
6.38887,3434
6.39463,3268
6.40042,3160
6.40618,2947
6.41197,3044
6.41773,2794
6.42352,2638
6.42928,2261
6.43507,2526
6.44083,2744
6.44662,3095
6.45238,2435
6.45817,2556
6.46395,2631
6.46972,3324
6.4755,1998
6.48127,2660
6.48705,3251
6.49282,6287
6.4986,8265
6.50437,6167
6.51015,4364
6.51592,3566
6.5217,3403
6.52747,4204
6.53325,2898
6.53902,2506
6.5448,2218
6.55057,1743
6.55635,2561
6.56212,1959
6.5679,2376
6.57367,1637
6.57945,1836
6.58522,2214
6.591,1652
6.59678,1974
6.60255,1719
6.60833,1830
6.6141,1682
6.61988,1718
6.62565,1873
6.63143,2048
6.6372,1662
6.64298,1717
6.64875,2077
6.65453,2152
6.6603,2411
6.66608,2103
6.67185,1931
6.67763,1996
6.6834,1997
6.68918,1922
6.69495,2473
6.70073,1768
6.7065,1685
6.71228,1443
6.71805,1210
6.72383,1897
6.72962,2373
6.73538,2727
6.74117,1889
6.74693,1649
6.75272,1331
6.75848,1674
6.76427,1418
6.77003,1857
6.77582,1310
6.78158,1764
6.78737,1516
6.79313,1435
6.79892,1485
6.80468,1638
6.81047,1318
6.81623,1353
6.82202,1292
6.82778,1325
6.83357,1586
6.83933,1435
6.84512,1201
6.85088,990
6.85667,960
6.86245,1221
6.86822,769
6.874,1352
6.87977,1045
6.88555,1045
6.89132,1198
6.8971,1267
6.90287,1055
6.90865,1162
6.91442,1641
6.9202,652
6.92597,858
6.93175,1130
6.93752,1256
6.9433,925
6.94907,744
6.95485,1226
6.96062,1056
6.9664,1293
6.97217,828
6.97795,978
6.98373,1078
6.9895,877
6.99528,1060
7.00105,1102
7.00683,742
7.0126,704
7.01838,1102
7.02415,1234
7.02993,1056
7.0357,975
7.04148,842
7.04725,1243
7.05303,727
7.0588,1181
7.06458,840
7.07035,880
7.07613,617
7.0819,1231
7.08768,1141
7.09345,1172
7.09923,912
7.105,1100
7.11078,1058
7.11657,505
7.12233,521
7.12812,808
7.13388,1814
7.13967,2359
7.14543,2142
7.15122,4138
7.15698,4726
7.16277,6634
7.16853,7708
7.17432,10439
7.18008,12717
7.18587,16267
7.19163,19489
7.19742,24168
7.20318,27425
7.20897,33219
7.21473,38825
7.22052,45278
7.22628,50722
7.23207,54477
7.23785,64290
7.24362,68112
7.2494,75342
7.25517,80239
7.26095,89588
7.26672,97278
7.2725,104103
7.27827,113957
7.28405,127940
7.28982,137043
7.2956,157048
7.30137,179468
7.30715,199941
7.31292,333945
7.3187,1271305
7.32447,1522598
7.33025,350136
7.33602,123669
7.3418,75178
7.34757,59007
7.35335,49519
7.35912,40815
7.3649,38144
7.37068,32645
7.37645,29653
7.38223,29250
7.388,27995
7.39378,26245
7.39955,25044
7.40533,22775
7.4111,20337
7.41688,20169
7.42265,17555
7.42843,15903
7.4342,15317
7.43998,14709
7.44575,13975
7.45153,13235
7.4573,12512
7.46308,12371
7.46885,11127
7.47463,11324
7.4804,10323
7.48618,10235
7.49197,9116
7.49773,8142
7.50352,8908
7.50928,8363
7.51507,8477
7.52083,8979
7.52662,8646
7.53238,8442
7.53817,8265
7.54393,7616
7.54972,7521
7.55548,7559
7.56127,7153
7.56703,7085
7.57282,6490
7.57858,6756
7.58437,7455
7.59013,6849
7.59592,6056
7.60168,6565
7.60747,6942
7.61323,6970
7.61902,5813
7.6248,6878
7.63057,6764
7.63635,5947
7.64212,6373
7.6479,6823
7.65367,6903
7.65945,6267
7.66522,6914
7.671,6155
7.67677,5663
7.68255,7523
7.68832,6422
7.6941,5245
7.69987,6255
7.70565,5729
7.71142,6792
7.7172,6200
7.72297,6245
7.72875,5639
7.73452,6436
7.7403,6149
7.74607,6333
7.75185,6809
7.75763,6621
7.7634,6591
7.76918,6702
7.77495,7265
7.78073,8664
7.7865,13257
7.79228,16569
7.79805,13420
7.80383,8952
7.8096,7518
7.81538,7123
7.82115,7364
7.82693,6812
7.8327,6616
7.83848,6090
7.84425,6832
7.85003,6080
7.8558,5480
7.86158,5527
7.86735,6229
7.87313,6358
7.87892,5975
7.88468,5564
7.89047,6299
7.89623,5351
7.90202,4958
7.90778,4782
7.91357,5369
7.91933,5634
7.92512,4743
7.93088,4786
7.93667,5369
7.94243,4865
7.94822,4919
7.95398,4628
7.95977,4183
7.96553,4565
7.97132,4793
7.97708,4906
7.98287,5202
7.98863,4787
7.99442,4816
8.00018,4742
8.00597,4289
8.01175,4116
8.01752,3860
8.0233,4732
8.02907,3769
8.03485,4217
8.04062,4021
8.0464,4039
8.05217,4106
8.05795,4455
8.06372,3837
8.0695,3864
8.07527,3975
8.08105,3415
8.08682,3983
8.0926,3929
8.09837,3729
8.10415,4168
8.10992,3870
8.1157,3703
8.12147,3654
8.12725,2903
8.13303,3840
8.1388,4406
8.14458,3551
8.15035,3529
8.15613,3926
8.1619,4302
8.16768,3946
8.17345,4020
8.17923,4038
8.185,3614
8.19078,3927
8.19655,3578
8.20233,3349
8.2081,3127
8.21388,4092
8.21965,3650
8.22543,3080
8.2312,3442
8.23698,3391
8.24275,3444
8.24853,3517
8.2543,4091
8.26008,2913
8.26587,3097
8.27163,2773
8.27742,2753
8.28318,3233
8.28897,3321
8.29473,2945
8.30052,2961
8.30628,2820
8.31207,2450
8.31783,3388
8.32362,2749
8.32938,2578
8.33517,2614
8.34093,2942
8.34672,2630
8.35248,2423
8.35827,2478
8.36403,2978
8.36982,2594
8.37558,2722
8.38137,2348
8.38715,2573
8.39292,2311
8.3987,2347
8.40447,2538
8.41025,2045
8.41602,2721
8.4218,2788
8.42757,2874
8.43335,2757
8.43912,2340
8.4449,2584
8.45067,2228
8.45645,2550
8.46222,2672
8.468,2247
8.47377,1991
8.47955,2079
8.48532,2032
8.4911,2091
8.49687,2478
8.50265,1892
8.50842,1885
8.5142,2439
8.51998,1982
8.52575,2026
8.53153,1758
8.5373,2314
8.54308,2395
8.54885,1566
8.55463,2096
8.5604,1938
8.56618,1919
8.57195,2325
8.57773,1906
8.5835,1858
8.58928,1966
8.59505,1718
8.60083,2379
8.6066,2235
8.61238,1647
8.61815,1722
8.62393,1677
8.6297,1611
8.63548,1944
8.64125,1611
8.64703,1835
8.65282,1507
8.65858,1378
8.66437,1381
8.67013,1317
8.67592,1316
8.68168,992
8.68747,1128
8.69323,1738
8.69902,1081
8.70478,1548
8.71057,1145
8.71633,1576
8.72212,1392
8.72788,1314
8.73367,1594
8.73943,1385
8.74522,1534
8.75098,1220
8.75677,1149
8.76253,994
8.76832,1092
8.7741,1826
8.77987,1244
8.78565,1281
8.79142,1332
8.7972,1348
8.80297,963
8.80875,1071
8.81452,1073
8.8203,1210
8.82607,1054
8.83185,823
8.83762,1142
8.8434,1542
8.84917,1209
8.85495,989
8.86072,801
8.8665,1062
8.87227,1055
8.87805,1018
8.88382,781
8.8896,1048
8.89537,1106
8.90115,1046
8.90693,1215
8.9127,965
8.91848,987
8.92425,793
8.93003,1313
8.9358,1150
8.94158,1166
8.94735,1003
8.95313,1081
8.9589,883
8.96468,701
8.97045,961
8.97623,724
8.982,896
8.98778,1335
8.99355,1009
8.99933,325
9.0051,1156
9.01088,969
9.01665,1054
9.02243,1229
9.02822,871
9.03398,952
9.03977,808
9.04553,1053
9.05132,1063
9.05708,952
9.06287,1069
9.06863,660
9.07442,721
9.08018,1002
9.08597,461
9.09173,1140
9.09752,987
9.10328,1125
9.10907,742
9.11483,798
9.12062,690
9.12638,810
9.13217,753
9.13793,861
9.14372,874
9.14948,1250
9.15527,903
9.16105,790
9.16682,464
9.1726,673
9.17837,623
9.18415,1118
9.18992,803
9.1957,654
9.20147,913
9.20725,1063
9.21302,1414
9.2188,1068
9.22457,642
9.23035,642
9.23612,1028
9.2419,651
9.24767,728
9.25345,846
9.25922,868
9.265,1357
9.27077,952
9.27655,666
9.28232,768
9.2881,1099
9.29388,731
9.29965,867
9.30543,1047
9.3112,754
9.31698,1135
9.32275,625
9.32853,841
9.3343,878
9.34008,1098
9.34585,702
9.35163,527
9.3574,763
9.36318,1224
9.36895,647
9.37473,781
9.3805,1191
9.38628,1141
9.39205,556
9.39783,796
9.4036,590
9.40938,756
9.41517,1104
9.42093,801
9.42672,1048
9.43248,1079
9.43827,859
9.44403,755
9.44982,684
9.45558,1043
9.46137,674
9.46713,881
9.47292,902
9.47868,1258
9.48447,1124
9.49023,723
9.49602,1370
9.50178,827
9.50757,1289
9.51333,1161
9.51912,1276
9.52488,1074
9.53067,784
9.53643,748
9.54222,773
9.548,885
9.55377,1090
9.55955,898
9.56532,716
9.5711,1209
9.57687,933
9.58265,793
9.58842,875
9.5942,687
9.59997,1268
9.60575,1017
9.61152,1100
9.6173,917
9.62307,1209
9.62885,1286
9.63462,854
9.6404,1014
9.64617,932
9.65195,599
9.65772,969
9.6635,800
9.66927,1168
9.67505,870
9.68083,748
9.6866,883
9.69238,740
9.69815,1212
9.70393,1483
9.7097,737
9.71548,1308
9.72125,1152
9.72703,783
9.7328,1264
9.73858,1052
9.74435,992
9.75013,912
9.7559,1303
9.76168,1548
9.76745,622
9.77323,1012
9.779,1086
9.78478,886
9.79055,898
9.79633,1207
9.80212,847
9.80788,1233
9.81367,1119
9.81943,1089
9.82522,997
9.83098,1026
9.83677,1123
9.84253,1408
9.84832,1356
9.85408,1391
9.85987,1253
9.86563,940
9.87142,1648
9.87718,1776
9.88297,1660
9.88873,872
9.89452,805
9.90028,1231
9.90607,1196
9.91183,1568
9.91762,1607
9.92338,1671
9.92917,1418
9.93495,1698
9.94072,1251
9.9465,1063
9.95227,1141
9.95805,1210
9.96382,1232
9.9696,1421
9.97537,1137
9.98115,1284
9.98692,1436
9.9927,1166
9.99847,1557
10.0043,1107
10.01,1366
10.0158,1399
10.0216,1301
10.0274,1297
10.0331,2104
10.0389,1311
10.0447,1663
10.0505,1311
10.0562,1519
10.062,2113
10.0678,1346
10.0736,1796
10.0793,1764
10.0851,1720
10.0909,2047
10.0967,2933
10.1024,2105
10.1082,1515
10.114,1536
10.1198,1565
10.1255,1858
10.1313,1372
10.1371,1750
10.1429,2380
10.1486,14293
10.1544,40135
10.1602,28336
10.166,12953
10.1717,6634
10.1775,5309
10.1833,4114
10.1891,3904
10.1948,3263
10.2006,2809
10.2064,2068
10.2122,2326
10.2179,3271
10.2237,2955
10.2295,2690
10.2353,2261
10.241,2423
10.2468,1735
10.2526,2408
10.2584,2615
10.2641,2555
10.2699,4596
10.2757,128235
10.2815,1014600
10.2872,1464808
10.293,715243
10.2988,342438
10.3046,215672
10.3104,150765
10.3161,111599
10.3219,83940
10.3277,65167
10.3335,54017
10.3392,45802
10.345,39372
10.3508,34270
10.3566,29049
10.3623,26540
10.3681,22333
10.3739,20866
10.3797,17540
10.3854,16557
10.3912,14697
10.397,12540
10.4028,12395
10.4085,11273
10.4143,9836
10.4201,8989
10.4259,9658
10.4316,7494
10.4374,8298
10.4432,7654
10.449,7218
10.4547,6686
10.4605,6411
10.4663,5950
10.4721,5852
10.4778,5785
10.4836,6619
10.4894,5455
10.4952,4846
10.5009,5935
10.5067,5572
10.5125,4971
10.5183,5543
10.524,5218
10.5298,5176
10.5356,5602
10.5414,5020
10.5471,5287
10.5529,5048
10.5587,4357
10.5645,4429
10.5702,5068
10.576,4814
10.5818,4298
10.5876,5213
10.5933,4856
10.5991,4972
10.6049,5242
10.6107,4913
10.6164,4578
10.6222,4845
10.628,4606
10.6338,4961
10.6395,4668
10.6453,4732
10.6511,4987
10.6569,5541
10.6626,5487
10.6684,5159
10.6742,5436
10.68,4842
10.6857,5060
10.6915,4925
10.6973,5274
10.7031,4924
10.7089,5633
10.7146,4989
10.7204,5378
10.7262,5831
10.732,5760
10.7377,5563
10.7435,5523
10.7493,5829
10.7551,5672
10.7608,5862
10.7666,5920
10.7724,5647
10.7782,5908
10.7839,6139
10.7897,5846
10.7955,5943
10.8013,5865
10.807,5949
10.8128,6428
10.8186,5286
10.8244,6148
10.8301,6971
10.8359,7096
10.8417,7084
10.8475,6451
10.8532,7073
10.859,6428
10.8648,7217
10.8706,6683
10.8763,7087
10.8821,6795
10.8879,7501
10.8937,6245
10.8994,6554
10.9052,6807
10.911,6411
10.9168,7632
10.9225,7415
10.9283,7734
10.9341,8192
10.9399,7406
10.9456,7740
10.9514,8064
10.9572,7820
10.963,8405
10.9687,8358
10.9745,7585
10.9803,9388
10.9861,8073
10.9918,8864
10.9976,9046
11.0034,8178
11.0092,8657
11.0149,8364
11.0207,7545
11.0265,9104
11.0323,9285
11.038,8037
11.0438,9318
11.0496,9253
11.0554,9369
11.0611,9478
11.0669,9418
11.0727,10203
11.0785,8761
11.0843,9714
11.09,9959
11.0958,10144
11.1016,10226
11.1074,10489
11.1131,10349
11.1189,11115
11.1247,10651
11.1305,11142
11.1362,9744
11.142,11296
11.1478,11449
11.1536,10760
11.1593,10789
11.1651,12348
11.1709,11822
11.1767,12047
11.1824,11713
11.1882,11423
11.194,12724
11.1998,11478
11.2055,12720
11.2113,12240
11.2171,13092
11.2229,11715
11.2286,13836
11.2344,12523
11.2402,13061
11.246,13419
11.2517,13081
11.2575,13758
11.2633,13200
11.2691,14244
11.2748,14010
11.2806,14412
11.2864,14852
11.2922,13880
11.2979,14729
11.3037,13757
11.3095,14771
11.3153,15598
11.321,14518
11.3268,14682
11.3326,14927
11.3384,16089
11.3441,14938
11.3499,16578
11.3557,15067
11.3615,17028
11.3672,16657
11.373,17134
11.3788,15337
11.3846,17386
11.3903,17270
11.3961,16946
11.4019,17578
11.4077,18142
11.4134,18234
11.4192,19232
11.425,17036
11.4308,18525
11.4365,17430
11.4423,18030
11.4481,19183
11.4539,19406
11.4596,20568
11.4654,19510
11.4712,20317
11.477,19619
11.4828,19894
11.4885,19818
11.4943,22251
11.5001,20517
11.5059,22442
11.5116,21635
11.5174,20229
11.5232,23489
11.529,23019
11.5347,23121
11.5405,23488
11.5463,23326
11.5521,23776
11.5578,23110
11.5636,24278
11.5694,24730
11.5752,24268
11.5809,25329
11.5867,24685
11.5925,25577
11.5983,25714
11.604,27099
11.6098,26342
11.6156,26018
11.6214,26089
11.6271,27101
11.6329,26988
11.6387,28314
11.6445,29133
11.6502,28631
11.656,27908
11.6618,28957
11.6676,29542
11.6733,28447
11.6791,29963
11.6849,31121
11.6907,30891
11.6964,30634
11.7022,32189
11.708,29852
11.7138,31431
11.7195,31825
11.7253,32999
11.7311,33071
11.7369,33371
11.7426,33796
11.7484,33680
11.7542,35485
11.76,33655
11.7657,34367
11.7715,35952
11.7773,35658
11.7831,36176
11.7888,35948
11.7946,36238
11.8004,38046
11.8062,36325
11.8119,38023
11.8177,37153
11.8235,37227
11.8293,39161
11.835,38802
11.8408,39244
11.8466,39353
11.8524,39946
11.8582,40162
11.8639,40908
11.8697,41842
11.8755,41319
11.8813,42595
11.887,40832
11.8928,44122
11.8986,43775
11.9044,42322
11.9101,44888
11.9159,41769
11.9217,44395
11.9275,43818
11.9332,43846
11.939,44772
11.9448,45170
11.9506,44951
11.9563,47163
11.9621,46324
11.9679,46075
11.9737,46414
11.9794,45714
11.9852,46864
11.991,48943
11.9968,47694
12.0025,48701
12.0083,48874
12.0141,47685
12.0199,47751
12.0256,48864
12.0314,50784
12.0372,49528
12.043,48924
12.0487,51910
12.0545,50089
12.0603,52859
12.0661,51133
12.0718,50585
12.0776,53243
12.0834,50722
12.0892,53844
12.0949,55190
12.1007,54818
12.1065,50279
12.1123,54352
12.118,55821
12.1238,54577
12.1296,54614
12.1354,54747
12.1411,55326
12.1469,53580
12.1527,55529
12.1585,53281
12.1642,56228
12.17,56279
12.1758,54548
12.1816,55978
12.1873,55885
12.1931,57805
12.1989,56380
12.2047,56084
12.2104,56707
12.2162,59577
12.222,57577
12.2278,57694
12.2336,60324
12.2393,61025
12.2451,61408
12.2509,57609
12.2567,58000
12.2624,58454
12.2682,59391
12.274,60706
12.2798,61166
12.2855,60988
12.2913,58993
12.2971,59900
12.3029,58871
12.3086,60310
12.3144,60490
12.3202,60814
12.326,60860
12.3317,61691
12.3375,62430
12.3433,60580
12.3491,60191
12.3548,62176
12.3606,61547
12.3664,62059
12.3722,63583
12.3779,63607
12.3837,63423
12.3895,62840
12.3953,63913
12.401,61435
12.4068,65210
12.4126,62595
12.4184,63845
12.4241,63150
12.4299,64519
12.4357,66419
12.4415,65985
12.4472,64990
12.453,63067
12.4588,64122
12.4646,63151
12.4703,66741
12.4761,63828
12.4819,65799
12.4877,63689
12.4934,65957
12.4992,68106
12.505,62791
12.5108,63636
12.5165,64101
12.5223,65619
12.5281,66827
12.5339,63717
12.5396,65641
12.5454,66238
12.5512,66847
12.557,64421
12.5627,66333
12.5685,64345
12.5743,65261
12.5801,65986
12.5858,64518
12.5916,63632
12.5974,65008
12.6032,65504
12.6089,65627
12.6147,66691
12.6205,64826
12.6263,65032
12.6321,66901
12.6378,65921
12.6436,68313
12.6494,66116
12.6552,65899
12.6609,67750
12.6667,64959
12.6725,66918
12.6783,64614
12.684,65560
12.6898,66158
12.6956,66855
12.7014,64745
12.7071,65050
