D:\MassHunter\GCMS\1\data\Elizabeth\B06\24.06.06\RAU-R505-5.D 06 Jun 24  04:21 pm
Start of data points
1.09303,28001570
1.09882,27639886
1.10458,26622406
1.11037,25907564
1.11613,25312540
1.12192,24634316
1.12768,24242096
1.13347,23769110
1.13925,23365076
1.14502,22897984
1.1508,22747892
1.15657,26218912
1.16235,755258
1.16812,546045
1.1739,483454
1.17967,463790
1.18545,519607
1.19122,692689
1.197,995641
1.20277,1336921
1.20855,1820912
1.21432,1894010
1.2201,413351
1.22587,219660
1.23165,201231
1.23742,190046
1.2432,183841
1.24897,270427
1.25475,602627
1.26053,1192038
1.2663,1087131
1.27208,235007
1.27785,127821
1.28363,118689
1.2894,109106
1.29518,103458
1.30095,96560
1.30673,94763
1.3125,88434
1.31828,82531
1.32405,105164
1.32983,232683
1.3356,444567
1.34138,227785
1.34715,80850
1.35293,64896
1.3587,60096
1.36448,55681
1.37025,55334
1.37603,52247
1.3818,47887
1.38758,47815
1.39337,45945
1.39913,43096
1.40492,42056
1.41068,39614
1.41647,39576
1.42223,35509
1.42802,35378
1.43378,34554
1.43957,41289
1.44533,177641
1.45112,253168
1.45688,157070
1.46267,100743
1.46843,43014
1.47422,30367
1.47998,28687
1.48577,80544
1.49153,537018
1.49732,1182637
1.50308,729987
1.50887,194032
1.51463,56822
1.52042,28666
1.5262,24719
1.53197,30441
1.53775,31285
1.54352,22996
1.5493,18755
1.55507,17776
1.56085,16694
1.56662,16232
1.5724,16090
1.57817,15595
1.58395,14299
1.58972,14013
1.5955,13995
1.60127,14031
1.60705,13658
1.61282,13721
1.6186,14044
1.62437,12477
1.63015,12796
1.63592,12474
1.6417,11844
1.64748,11101
1.65325,12028
1.65903,10278
1.6648,10159
1.67058,12445
1.67635,19083
1.68213,24195
1.6879,17755
1.69368,11411
1.69945,9571
1.70523,9797
1.711,9068
1.71678,9223
1.72255,9141
1.72833,10549
1.7341,99156
1.73988,1277179
1.74565,3210250
1.75143,2683196
1.7572,1100473
1.76298,347023
1.76875,111122
1.77453,34434
1.78032,21536
1.78608,46283
1.79187,65964
1.79763,46050
1.80342,41362
1.80918,45111
1.81497,33165
1.82073,17219
1.82652,10419
1.83228,8047
1.83807,7531
1.84383,12147
1.84962,33795
1.85538,57370
1.86117,46849
1.86693,31799
1.87272,41291
1.87848,45959
1.88427,29927
1.89003,15846
1.89582,9163
1.9016,7567
1.90737,6612
1.91315,5604
1.91892,5966
1.9247,5333
1.93047,5417
1.93625,4952
1.94202,5439
1.9478,7520
1.95357,15823
1.95935,32555
1.96512,31786
1.9709,18710
1.97667,9682
1.98245,9160
1.98822,16609
1.994,22976
1.99977,18531
2.00555,12386
2.01132,10009
2.0171,18876
2.02287,28999
2.02865,27580
2.03443,16455
2.0402,8453
2.04598,6501
2.05175,4959
2.05753,4056
2.0633,3778
2.06908,4518
2.07485,3945
2.08063,4060
2.0864,4377
2.09218,4446
2.09795,4539
2.10373,3907
2.1095,4244
2.11528,4514
2.12105,3765
2.12683,4734
2.1326,3989
2.13838,3779
2.14415,3571
2.14993,3640
2.15572,3356
2.16148,4080
2.16727,3619
2.17303,4191
2.17882,2938
2.18458,3435
2.19037,3550
2.19613,3446
2.20192,3482
2.20768,3670
2.21347,3477
2.21923,3433
2.22502,3615
2.23078,3399
2.23657,3577
2.24233,3319
2.24812,3170
2.25388,3499
2.25967,3363
2.26543,3274
2.27122,2854
2.27698,2927
2.28277,3383
2.28855,3210
2.29432,3213
2.3001,3478
2.30587,3216
2.31165,3341
2.31742,3083
2.3232,3359
2.32897,2966
2.33475,2844
2.34052,3074
2.3463,2991
2.35207,3145
2.35785,2670
2.36362,3385
2.3694,2841
2.37517,2935
2.38095,2939
2.38672,2586
2.3925,2589
2.39827,2895
2.40405,2666
2.40982,2717
2.4156,2533
2.42138,2921
2.42715,2705
2.43293,2814
2.4387,2951
2.44448,2770
2.45025,2524
2.45603,3167
2.4618,2849
2.46758,2861
2.47335,2738
2.47913,2889
2.4849,2860
2.49068,2828
2.49645,2658
2.50223,2624
2.508,2486
2.51378,2127
2.51955,2878
2.52533,2689
2.5311,2245
2.53688,2359
2.54267,2684
2.54843,2749
2.55422,2429
2.55998,2437
2.56577,2402
2.57153,2488
2.57732,2528
2.58308,1937
2.58887,2623
2.59463,2584
2.60042,2225
2.60618,2108
2.61197,2493
2.61773,2281
2.62352,2524
2.62928,2327
2.63507,2024
2.64083,2515
2.64662,2068
2.65238,1930
2.65817,2407
2.66393,1965
2.66972,2201
2.6755,2200
2.68127,2376
2.68705,2254
2.69282,2170
2.6986,2244
2.70437,2090
2.71015,1875
2.71592,2064
2.7217,2038
2.72747,2004
2.73325,2246
2.73902,1937
2.7448,1968
2.75057,2540
2.75635,2291
2.76212,2053
2.7679,1933
2.77367,2182
2.77945,1896
2.78522,1802
2.791,1900
2.79678,1904
2.80255,1530
2.80833,1829
2.8141,2105
2.81988,1743
2.82565,2115
2.83143,1591
2.8372,1994
2.84298,2015
2.84875,1811
2.85453,1858
2.8603,1749
2.86608,1887
2.87185,1799
2.87763,2021
2.8834,2125
2.88918,1779
2.89495,2087
2.90073,1792
2.9065,1785
2.91228,1703
2.91805,1294
2.92383,1943
2.92962,2082
2.93538,1763
2.94117,2018
2.94693,1748
2.95272,1540
2.95848,1946
2.96427,2076
2.97003,1913
2.97582,1782
2.98158,1586
2.98737,1476
2.99313,1747
2.99892,1692
3.00468,1719
3.01047,2059
3.01623,1691
3.02202,1479
3.02778,1878
3.03357,1933
3.03933,1537
3.04512,1722
3.05088,1766
3.05667,2019
3.06245,1607
3.06822,1703
3.074,1245
3.07977,1804
3.08555,1402
3.09132,1214
3.0971,1446
3.10287,1443
3.10865,1772
3.11442,1644
3.1202,1744
3.12597,1560
3.13175,1532
3.13752,1456
3.1433,1611
3.14907,1744
3.15485,1557
3.16062,1438
3.1664,1400
3.17217,1219
3.17795,1735
3.18373,1515
3.1895,1545
3.19528,1423
3.20105,1802
3.20683,1520
3.2126,1547
3.21838,1332
3.22415,1293
3.22993,1399
3.2357,1244
3.24148,1250
3.24725,1584
3.25303,1141
3.2588,1273
3.26458,1822
3.27035,1516
3.27613,1430
3.2819,1445
3.28768,1317
3.29345,1406
3.29923,1405
3.305,1626
3.31078,1277
3.31657,1407
3.32233,1403
3.32812,1429
3.33388,850
3.33967,1378
3.34543,1221
3.35122,1359
3.35698,861
3.36277,1223
3.36853,1573
3.37432,1225
3.38008,1219
3.38587,1498
3.39163,1408
3.39742,1249
3.40318,1072
3.40897,1439
3.41473,1396
3.42052,1210
3.42628,1335
3.43207,1548
3.43785,1429
3.44362,1097
3.4494,1153
3.45517,1202
3.46095,1128
3.46672,995
3.4725,1553
3.47827,899
3.48405,1514
3.48982,1181
3.4956,1120
3.50137,1381
3.50715,952
3.51292,1241
3.5187,1193
3.52447,1013
3.53025,1294
3.53602,1059
3.5418,1124
3.54757,1590
3.55335,1090
3.55912,1097
3.5649,1035
3.57068,1375
3.57645,1356
3.58223,1015
3.588,925
3.59378,1067
3.59955,920
3.60533,1246
3.6111,944
3.61688,1519
3.62265,1324
3.62843,970
3.6342,1136
3.63998,801
3.64575,1036
3.65153,902
3.6573,1614
3.66308,1152
3.66885,1307
3.67463,1344
3.6804,1107
3.68618,1560
3.69197,882
3.69773,1263
3.70352,1255
3.70928,586
3.71507,658
3.72083,1231
3.72662,1084
3.73238,713
3.73817,891
3.74393,639
3.74972,631
3.75548,1069
3.76127,1031
3.76703,1200
3.77282,1015
3.77858,1370
3.78437,1027
3.79013,934
3.79592,1033
3.80168,1423
3.80747,800
3.81323,1004
3.81902,769
3.8248,928
3.83057,949
3.83635,949
3.84212,915
3.8479,1120
3.85367,840
3.85945,1110
3.86522,754
3.871,681
3.87677,920
3.88255,983
3.88832,779
3.8941,812
3.89987,763
3.90565,1041
3.91142,1138
3.9172,855
3.92297,995
3.92875,869
3.93452,666
3.9403,807
3.94607,955
3.95185,1138
3.95763,645
3.9634,984
3.96918,749
3.97495,766
3.98073,1157
3.9865,968
3.99228,1139
3.99805,1206
4.00383,907
4.0096,516
4.01538,973
4.02115,1170
4.02693,813
4.0327,934
4.03848,1315
4.04425,1012
4.05003,616
4.0558,1075
4.06158,601
4.06735,547
4.07313,30532
4.07892,30567
4.08468,28464
4.09047,25808
4.09623,25414
4.10202,21790
4.10778,21062
4.11357,19750
4.11933,18212
4.12512,15809
4.13088,15052
4.13667,14047
4.14243,13152
4.14822,13021
4.15398,11608
4.15977,10913
4.16553,9113
4.17132,9546
4.17708,8484
4.18287,8490
4.18863,8113
4.19442,7929
4.20018,7468
4.20597,7633
4.21175,6449
4.21752,5928
4.2233,6035
4.22907,5561
4.23485,5550
4.24062,5324
4.2464,5626
4.25217,4646
4.25795,4403
4.26372,4527
4.2695,4317
4.27527,4374
4.28105,4334
4.28682,4284
4.2926,3670
4.29837,3563
4.30415,3762
4.30992,4046
4.3157,3679
4.32147,3443
4.32725,3006
4.33302,3211
4.3388,3133
4.34458,2936
4.35035,3547
4.35613,2704
4.3619,3081
4.36768,2787
4.37345,2585
4.37923,2443
4.385,2687
4.39078,2611
4.39655,2886
4.40233,2249
4.4081,2872
4.41388,2177
4.41965,2589
4.42543,2792
4.4312,2493
4.43698,2498
4.44275,2209
4.44853,2247
4.4543,2617
4.46008,2108
4.46587,2737
4.47163,2267
4.47742,2026
4.48318,2618
4.48897,2387
4.49473,2123
4.50052,2392
4.50628,1936
4.51207,2112
4.51783,2086
4.52362,2122
4.52938,2219
4.53517,2174
4.54093,1829
4.54672,2138
4.55248,1854
4.55827,1679
4.56403,1940
4.56982,2029
4.57558,1997
4.58137,1781
4.58713,2045
4.59292,1652
4.5987,2007
4.60447,1762
4.61025,1724
4.61602,1822
4.6218,1799
4.62757,1567
4.63335,1840
4.63912,1479
4.6449,1855
4.65067,1794
4.65645,1945
4.66222,1993
4.668,1775
4.67377,1282
4.67955,1733
4.68532,1596
4.6911,1690
4.69687,1640
4.70265,1571
4.70842,1880
4.7142,1735
4.71998,1499
4.72575,1482
4.73153,1806
4.7373,1598
4.74308,1466
4.74885,1455
4.75463,1679
4.7604,1480
4.76618,1366
4.77195,1223
4.77773,1390
4.7835,1528
4.78928,1293
4.79505,1611
4.80083,1641
4.8066,1424
4.81238,1209
4.81815,1512
4.82393,1853
4.8297,2377
4.83548,2708
4.84125,1864
4.84703,1327
4.85282,1462
4.85858,1136
4.86437,1525
4.87013,947
4.87592,1626
4.88168,1359
4.88747,1366
4.89323,1295
4.89902,1498
4.90478,1385
4.91057,1302
4.91633,1582
4.92212,1303
4.92788,1688
4.93367,1049
4.93943,1570
4.94522,1600
4.95098,1278
4.95677,1288
4.96253,1571
4.96832,1685
4.9741,1858
4.97987,1445
4.98565,1051
4.99142,1802
4.9972,1578
5.00297,1262
5.00875,1371
5.01452,1650
5.0203,1404
5.02607,1443
5.03185,1257
5.03762,1289
5.0434,1023
5.04917,1149
5.05495,1362
5.06072,1700
5.0665,1313
5.07227,1085
5.07805,1642
5.08382,1138
5.0896,1470
5.09537,1394
5.10115,1436
5.10693,1024
5.1127,1542
5.11848,1434
5.12425,1513
5.13003,1446
5.1358,1031
5.14158,1021
5.14735,1216
5.15313,1510
5.1589,1218
5.16468,1472
5.17045,1479
5.17623,1134
5.182,896
5.18778,1110
5.19355,1291
5.19933,1483
5.2051,1741
5.21088,1176
5.21665,1227
5.22243,1444
5.2282,1476
5.23398,1366
5.23977,1335
5.24553,1292
5.25132,1141
5.25708,1105
5.26287,1829
5.26863,1613
5.27442,1261
5.28018,1885
5.28597,1761
5.29173,1757
5.29752,1348
5.30328,1376
5.30907,1444
5.31483,1383
5.32062,1430
5.32638,1289
5.33217,1540
5.33793,1008
5.34372,1212
5.34948,1218
5.35527,1290
5.36105,968
5.36682,1222
5.3726,1074
5.37837,1333
5.38415,1103
5.38992,1599
5.3957,1545
5.40147,1119
5.40725,1286
5.41302,1458
5.4188,1628
5.42457,1014
5.43035,1518
5.43612,1393
5.4419,1481
5.44767,1521
5.45345,1342
5.45922,1551
5.465,1126
5.47077,1341
5.47655,1491
5.48232,1986
5.4881,1504
5.49388,1098
5.49965,1247
5.50543,1561
5.5112,1315
5.51698,1119
5.52275,1393
5.52853,1317
5.5343,1552
5.54008,1267
5.54585,1411
5.55163,1223
5.5574,1419
5.56318,1702
5.56895,1196
5.57473,1772
5.5805,1514
5.58628,1436
5.59205,1315
5.59783,1555
5.6036,1602
5.60938,1537
5.61517,1301
5.62093,1189
5.62672,1422
5.63248,1608
5.63827,1324
5.64403,1390
5.64982,1923
5.65558,2020
5.66137,2607
5.66713,1500
5.67292,2334
5.67868,2186
5.68447,2036
5.69023,1785
5.69602,1987
5.70178,1774
5.70757,1788
5.71333,1700
5.71912,2114
5.72488,1848
5.73067,2101
5.73643,1539
5.74222,1599
5.748,2120
5.75377,1987
5.75955,1685
5.76532,2080
5.7711,2107
5.77687,2060
5.78265,1769
5.78842,1800
5.7942,2245
5.79997,1548
5.80575,1620
5.81152,1896
5.8173,2214
5.82307,1973
5.82885,1483
5.83462,1635
5.8404,1645
5.84617,2099
5.85195,1960
5.85772,2159
5.8635,2177
5.86927,1516
5.87505,1366
5.88083,1910
5.8866,1601
5.89238,1687
5.89815,1658
5.90393,1558
5.9097,1912
5.91548,1297
5.92125,1321
5.92703,1586
5.9328,1686
5.93858,1242
5.94435,1447
5.95013,1524
5.9559,1293
5.96168,1538
5.96745,1663
5.97323,1490
5.979,1603
5.98478,1661
5.99055,1256
5.99633,1412
6.00212,1592
6.00788,1706
6.01367,1561
6.01943,1332
6.02522,1256
6.03098,1593
6.03677,1654
6.04253,1665
6.04832,520721
6.05408,1754112
6.05987,957998
6.06563,350630
6.07142,178673
6.07718,115867
6.08297,80036
6.08873,59950
6.09452,45426
6.10028,38381
6.10607,32269
6.11183,27302
6.11762,23255
6.12338,20623
6.12917,17565
6.13495,16331
6.14072,14877
6.1465,13780
6.15227,11154
6.15805,11087
6.16382,10458
6.1696,9666
6.17537,8781
6.18115,7746
6.18692,7684
6.1927,7504
6.19847,7138
6.20425,6201
6.21002,6256
6.2158,5886
6.22157,5999
6.22735,5252
6.23312,4627
6.2389,5016
6.24467,5440
6.25045,5150
6.25623,7325
6.262,6027
6.26778,5525
6.27355,4808
6.27933,4795
6.2851,5071
6.29088,121088
6.29665,960172
6.30243,1170712
6.3082,359709
6.31398,60668
6.31975,20247
6.32553,11819
6.3313,8179
6.33708,7291
6.34285,5945
6.34863,5363
6.3544,4520
6.36018,4801
6.36595,3720
6.37173,3881
6.3775,4003
6.38328,3185
6.38907,3717
6.39483,3820
6.40062,3139
6.40638,3253
6.41217,3063
6.41793,2575
6.42372,3061
6.42948,2669
6.43527,3135
6.44103,2895
6.44682,2357
6.45258,2770
6.45837,2992
6.46413,2642
6.46992,2901
6.47568,2790
6.48147,2876
6.48723,3706
6.49302,7650
6.49878,8574
6.50457,6217
6.51035,4231
6.51612,3224
6.5219,3583
6.52767,4552
6.53345,3669
6.53922,3341
6.545,3175
6.55077,2498
6.55655,2293
6.56232,2536
6.5681,2048
6.57387,2662
6.57965,1919
6.58542,2502
6.5912,2169
6.59697,2608
6.60275,2062
6.60852,2643
6.6143,1778
6.62007,1830
6.62585,1863
6.63162,1807
6.6374,2107
6.64318,1998
6.64895,2410
6.65473,1913
6.6605,2038
6.66628,2006
6.67205,2488
6.67783,1743
6.6836,2093
6.68938,2316
6.69515,2317
6.70093,2024
6.7067,1734
6.71248,1974
6.71825,1852
6.72403,1448
6.7298,1936
6.73558,2023
6.74135,2175
6.74713,1580
6.7529,1695
6.75868,1713
6.76445,1593
6.77023,1304
6.77602,2058
6.78178,1964
6.78757,2293
6.79333,2157
6.79912,1743
6.80488,1562
6.81067,1396
6.81643,1541
6.82222,929
6.82798,1229
6.83377,1259
6.83953,1536
6.84532,1274
6.85108,1243
6.85687,1448
6.86263,1231
6.86842,1298
6.87418,1212
6.87997,1459
6.88573,1179
6.89152,1105
6.8973,1131
6.90307,1368
6.90885,937
6.91462,770
6.9204,1048
6.92617,1218
6.93195,1359
6.93772,1175
6.9435,1535
6.94927,1160
6.95505,856
6.96082,880
6.9666,937
6.97237,940
6.97815,903
6.98392,1167
6.9897,1520
6.99547,886
7.00125,1231
7.00702,893
7.0128,1183
7.01857,751
7.02435,1221
7.03013,968
7.0359,1062
7.04168,954
7.04745,1064
7.05323,729
7.059,896
7.06478,1249
7.07055,1043
7.07633,999
7.0821,1203
7.08788,1282
7.09365,1073
7.09943,775
7.1052,1019
7.11098,1412
7.11675,881
7.12253,1158
7.1283,1153
7.13408,2287
7.13985,2843
7.14563,3239
7.15142,4228
7.15718,5822
7.16297,7314
7.16873,9388
7.17452,12493
7.18028,16614
7.18607,20791
7.19183,23256
7.19762,29119
7.20338,35152
7.20917,39868
7.21493,44826
7.22072,53799
7.22648,59279
7.23227,64803
7.23803,73130
7.24382,79358
7.24958,84908
7.25537,91125
7.26113,102190
7.26692,107544
7.27268,118606
7.27847,132521
7.28425,144276
7.29002,161857
7.2958,179820
7.30157,203021
7.30735,241100
7.31312,398725
7.3189,1548504
7.32467,1855749
7.33045,374580
7.33622,120400
7.342,77652
7.34777,60296
7.35355,49406
7.35932,43054
7.3651,37132
7.37087,35090
7.37665,31411
7.38242,30103
7.3882,30414
7.39397,28682
7.39975,25277
7.40553,23977
7.4113,22157
7.41708,20101
7.42285,18663
7.42863,17676
7.4344,15896
7.44018,14584
7.44595,15067
7.45173,13219
7.4575,13396
7.46328,13154
7.46905,12474
7.47483,12043
7.4806,10801
7.48638,11705
7.49215,11017
7.49793,9427
7.5037,10396
7.50948,9427
7.51525,9174
7.52103,8910
7.5268,9452
7.53258,8245
7.53837,7968
7.54413,9196
7.54992,8076
7.55568,8936
7.56147,7698
7.56723,7337
7.57302,7704
7.57878,7472
7.58457,7720
7.59033,7432
7.59612,6278
7.60188,6839
7.60767,7481
7.61343,7888
7.61922,7854
7.62498,7265
7.63077,7088
7.63653,7181
7.64232,6908
7.64808,6505
7.65387,6705
7.65963,6882
7.66542,6834
7.6712,6827
7.67697,6630
7.68275,6995
7.68852,6161
7.6943,7306
7.70007,6744
7.70585,6778
7.71162,6935
7.7174,7009
7.72317,6801
7.72895,5656
7.73472,7264
7.7405,6425
7.74627,6507
7.75205,6541
7.75782,6448
7.7636,7777
7.76937,8243
7.77515,8961
7.78092,9474
7.7867,15687
7.79248,18475
7.79825,12360
7.80403,9788
7.8098,7975
7.81558,7181
7.82135,6473
7.82713,6895
7.8329,6929
7.83868,6872
7.84445,6174
7.85023,6400
7.856,6391
7.86178,6960
7.86755,6227
7.87333,5839
7.8791,6129
7.88488,6768
7.89065,6041
7.89643,6166
7.9022,6174
7.90798,5827
7.91375,5466
7.91953,5108
7.92532,5902
7.93108,5503
7.93687,5750
7.94263,5497
7.94842,5486
7.95418,5411
7.95997,5490
7.96573,5108
7.97152,5037
7.97728,5139
7.98307,4360
7.98883,4962
7.99462,4903
8.00038,5549
8.00617,4742
8.01193,5006
8.01772,4616
8.02348,5252
8.02927,5072
8.03503,4591
8.04082,4450
8.04658,4630
8.05237,5078
8.05815,4905
8.06392,4682
8.0697,5016
8.07547,4618
8.08125,4741
8.08702,4558
8.0928,4537
8.09857,4817
8.10435,4328
8.11012,4239
8.1159,4749
8.12167,4155
8.12745,3870
8.13322,4239
8.139,4723
8.14477,3825
8.15055,4133
8.15632,4648
8.1621,4261
8.16787,4770
8.17365,3999
8.17943,3620
8.1852,3767
8.19098,3740
8.19675,3309
8.20253,3254
8.2083,3620
8.21408,4388
8.21985,4195
8.22563,3793
8.2314,3653
8.23718,3717
8.24295,3657
8.24873,3462
8.2545,3903
8.26028,3580
8.26605,3457
8.27183,3622
8.2776,3952
8.28338,3402
8.28915,2898
8.29493,3834
8.3007,2980
8.30648,3312
8.31227,3566
8.31803,3728
8.32382,2934
8.32958,3376
8.33537,2793
8.34113,3571
8.34692,2955
8.35268,2935
8.35847,3220
8.36423,3182
8.37002,2585
8.37578,2627
8.38157,2423
8.38733,3163
8.39312,3147
8.39888,2939
8.40467,2604
8.41043,2881
8.41622,2917
8.42198,3092
8.42777,2500
8.43355,2733
8.43932,2643
8.4451,2640
8.45087,2545
8.45665,2524
8.46242,2979
8.4682,2899
8.47397,2783
8.47975,2582
8.48552,2367
8.4913,2678
8.49707,1945
8.50285,1952
8.50862,2290
8.5144,2413
8.52017,1817
8.52595,1892
8.53172,2311
8.5375,2086
8.54327,2316
8.54905,2410
8.55482,2115
8.5606,2443
8.56638,1972
8.57215,1789
8.57793,1644
8.5837,2079
8.58948,1956
8.59525,1945
8.60103,1742
8.6068,2384
8.61258,1804
8.61835,1921
8.62413,1433
8.6299,1841
8.63568,2071
8.64145,1896
8.64723,1863
8.653,1540
8.65878,1500
8.66455,2030
8.67033,1741
8.6761,1357
8.68188,1443
8.68767,1607
8.69343,1594
8.69922,1171
8.70498,1682
8.71077,1734
8.71653,2061
8.72232,1706
8.72808,1693
8.73387,1413
8.73963,1706
8.74542,1623
8.75118,1307
8.75697,1447
8.76273,1320
8.76852,1045
8.77428,1507
8.78007,1495
8.78583,1340
8.79162,1342
8.79738,1065
8.80317,1158
8.80893,1306
8.81472,996
8.8205,1375
8.82627,1146
8.83205,1579
8.83782,1085
8.8436,1169
8.84937,907
8.85515,1154
8.86092,1325
8.8667,779
8.87247,1378
8.87825,1068
8.88402,1235
8.8898,1365
8.89557,1588
8.90135,1394
8.90712,964
8.9129,1148
8.91867,962
8.92445,1183
8.93022,959
8.936,960
8.94177,674
8.94755,1081
8.95333,1241
8.9591,882
8.96488,1092
8.97065,1219
8.97643,1077
8.9822,911
8.98798,904
8.99375,1141
8.99953,969
9.0053,1080
9.01108,1447
9.01685,900
9.02263,1168
9.0284,1018
9.03418,1315
9.03995,1004
9.04573,1002
9.0515,771
9.05728,908
9.06305,565
9.06883,767
9.07462,898
9.08038,1380
9.08617,1173
9.09193,1311
9.09772,900
9.10348,1012
9.10927,999
9.11503,835
9.12082,1036
9.12658,777
9.13237,826
9.13813,1139
9.14392,734
9.14968,759
9.15547,1014
9.16123,966
9.16702,829
9.17278,884
9.17857,1011
9.18433,937
9.19012,555
9.19588,833
9.20167,1007
9.20745,621
9.21322,628
9.219,917
9.22477,766
9.23055,842
9.23632,914
9.2421,584
9.24787,906
9.25365,1054
9.25942,936
9.2652,922
9.27097,1036
9.27675,1317
9.28252,839
9.2883,1133
9.29407,1194
9.29985,940
9.30562,1055
9.3114,858
9.31717,490
9.32295,765
9.32873,927
9.3345,722
9.34028,827
9.34605,789
9.35183,1368
9.3576,747
9.36338,746
9.36915,456
9.37493,987
9.3807,985
9.38648,1114
9.39225,1234
9.39803,877
9.4038,936
9.40958,918
9.41535,816
9.42113,698
9.4269,1102
9.43268,1025
9.43845,463
9.44423,1014
9.45,776
9.45578,974
9.46157,814
9.46733,769
9.47312,923
9.47888,741
9.48467,917
9.49043,876
9.49622,834
9.50198,512
9.50777,731
9.51353,853
9.51932,631
9.52508,1105
9.53087,860
9.53663,1105
9.54242,1146
9.54818,621
9.55397,875
9.55973,1009
9.56552,826
9.57128,972
9.57707,931
9.58283,1078
9.58862,1047
9.5944,731
9.60017,1030
9.60595,931
9.61172,967
9.6175,1031
9.62327,1178
9.62905,982
9.63482,942
9.6406,1165
9.64637,1289
9.65215,1597
9.65792,930
9.6637,1609
9.66947,1141
9.67525,1211
9.68102,1223
9.6868,1045
9.69257,1281
9.69835,1148
9.70412,864
9.7099,1318
9.71568,1332
9.72145,992
9.72723,1357
9.733,1397
9.73878,1206
9.74455,1513
9.75033,710
9.7561,1349
9.76188,1259
9.76765,1157
9.77343,1466
9.7792,1138
9.78498,715
9.79075,906
9.79653,767
9.8023,1233
9.80808,1317
9.81385,1250
9.81963,1526
9.8254,1573
9.83118,1034
9.83695,1169
9.84273,1511
9.84852,1605
9.85428,1629
9.86007,1505
9.86583,1567
9.87162,958
9.87738,1088
9.88317,1765
9.88893,1524
9.89472,1184
9.90048,1409
9.90627,1675
9.91203,1587
9.91782,1471
9.92358,1257
9.92937,1934
9.93513,1447
9.94092,1367
9.94668,1820
9.95247,1698
9.95823,1612
9.96402,1119
9.9698,1777
9.97557,1734
9.98135,1657
9.98712,1632
9.9929,1469
9.99867,1871
10.0045,1396
10.0102,1565
10.016,1366
10.0218,1797
10.0276,1690
10.0333,1743
10.0391,1542
10.0449,1875
10.0507,2140
10.0564,1509
10.0622,1640
10.068,1771
10.0738,1826
10.0795,1697
10.0853,1813
10.0911,1436
10.0969,1971
10.1026,2445
10.1084,1867
10.1142,2003
10.12,1359
10.1257,2321
10.1315,1675
10.1373,2309
10.1431,2171
10.1488,3139
10.1546,11408
10.1604,14958
10.1662,8219
10.1719,5878
10.1777,4242
10.1835,3686
10.1893,3458
10.195,2775
10.2008,2345
10.2066,2647
10.2124,2714
10.2181,3154
10.2239,2423
10.2297,1661
10.2355,2151
10.2412,2332
10.247,2293
10.2528,2710
10.2586,1667
10.2643,2944
10.2701,1838
10.2759,20715
10.2817,216229
10.2874,547590
10.2932,424628
10.299,249619
10.3048,162668
10.3105,113351
10.3163,86512
10.3221,68364
10.3279,53921
10.3336,46081
10.3394,37812
10.3452,32794
10.351,26148
10.3568,23448
10.3625,22128
10.3683,17816
10.3741,16397
10.3799,14518
10.3856,12541
10.3914,12200
10.3972,12070
10.403,10319
10.4087,8883
10.4145,8876
10.4203,7097
10.4261,7869
10.4318,7867
10.4376,7169
10.4434,6783
10.4492,6604
10.4549,5879
10.4607,5849
10.4665,5371
10.4723,5849
10.478,6191
10.4838,5759
10.4896,6028
10.4954,5102
10.5011,5001
10.5069,5405
10.5127,5055
10.5185,5006
10.5242,5580
10.53,5555
10.5358,5064
10.5416,4397
10.5473,5590
10.5531,5328
10.5589,4612
10.5647,4504
10.5704,4751
10.5762,5415
10.582,4370
10.5878,5347
10.5935,4793
10.5993,4463
10.6051,5308
10.6109,4638
10.6166,4849
10.6224,3802
10.6282,4787
10.634,5020
10.6397,4629
10.6455,4176
10.6513,5504
10.6571,4716
10.6628,5157
10.6686,5072
10.6744,5293
10.6802,5537
10.6859,5788
10.6917,5396
10.6975,5594
10.7033,5960
10.709,6056
10.7148,5163
10.7206,5172
10.7264,5642
10.7321,5464
10.7379,5413
10.7437,5774
10.7495,5390
10.7553,6458
10.761,5476
10.7668,6017
10.7726,5439
10.7784,5747
10.7841,6372
10.7899,6092
10.7957,6580
10.8015,7007
10.8072,5195
10.813,6304
10.8188,6025
10.8246,6428
10.8303,6647
10.8361,7187
10.8419,6645
10.8477,6805
10.8534,6979
10.8592,7254
10.865,6210
10.8708,7408
10.8765,7498
10.8823,7413
10.8881,6803
10.8939,6993
10.8996,7913
10.9054,7048
10.9112,7730
10.917,7353
10.9227,8389
10.9285,8790
10.9343,7907
10.9401,7876
10.9458,8015
10.9516,7985
10.9574,8488
10.9632,7604
10.9689,8700
10.9747,8159
10.9805,8039
10.9863,8169
10.992,9561
10.9978,9554
11.0036,9605
11.0094,8760
11.0151,9363
11.0209,8940
11.0267,9157
11.0325,9820
11.0382,9474
11.044,8803
11.0498,10132
11.0556,10921
11.0613,9364
11.0671,9699
11.0729,9760
11.0787,9824
11.0844,9849
11.0902,10351
11.096,9658
11.1018,9970
11.1075,10579
11.1133,10759
11.1191,10128
11.1249,10998
11.1307,11340
11.1364,10525
11.1422,12007
11.148,11766
11.1538,11760
11.1595,10910
11.1653,11424
11.1711,11574
11.1769,10866
11.1826,12147
11.1884,11835
11.1942,12394
11.2,12428
11.2057,12839
11.2115,12057
11.2173,12283
11.2231,12878
11.2288,12729
11.2346,12874
11.2404,13903
11.2462,12793
11.2519,12665
11.2577,12990
11.2635,14921
11.2693,13974
11.275,14136
11.2808,15034
11.2866,15241
11.2924,14338
11.2981,14020
11.3039,15440
11.3097,14901
11.3155,15716
11.3212,16466
11.327,15598
11.3328,15495
11.3386,16599
11.3443,16798
11.3501,16862
11.3559,16343
11.3617,17414
11.3674,16495
11.3732,17432
11.379,17627
11.3848,18525
11.3905,17888
11.3963,18232
11.4021,18936
11.4079,18122
11.4136,18178
11.4194,18628
11.4252,18609
11.431,21489
11.4367,19836
11.4425,19019
11.4483,20097
11.4541,20105
11.4598,20147
11.4656,20209
11.4714,21423
11.4772,20591
11.4829,22641
11.4887,21925
11.4945,21040
11.5003,21565
11.5061,20684
11.5118,21732
11.5176,22834
11.5234,23227
11.5292,23372
11.5349,24668
11.5407,24929
11.5465,24743
11.5523,23444
11.558,24586
11.5638,25292
11.5696,25273
11.5754,24255
11.5811,24649
11.5869,27113
11.5927,27215
11.5985,26265
11.6042,27773
11.61,25388
11.6158,26132
11.6216,26364
11.6273,28129
11.6331,27638
11.6389,28380
11.6447,29418
11.6504,28842
11.6562,29873
11.662,30195
11.6678,30080
11.6735,30564
11.6793,31331
11.6851,31937
11.6909,31483
11.6966,32020
11.7024,32583
11.7082,31906
11.714,34266
11.7197,33670
11.7255,35118
11.7313,35009
11.7371,33688
11.7428,33853
11.7486,33982
11.7544,37410
11.7602,35069
11.7659,34845
11.7717,36012
11.7775,36936
11.7833,37432
11.789,37427
11.7948,36324
11.8006,38000
11.8064,39644
11.8121,38739
11.8179,39237
11.8237,39791
11.8295,40483
11.8352,38896
11.841,40626
11.8468,42989
11.8526,42823
11.8583,42275
11.8641,41509
11.8699,42154
11.8757,41333
11.8814,43820
11.8872,42935
11.893,42075
11.8988,43542
11.9046,45323
11.9103,42815
11.9161,45020
11.9219,45758
11.9277,46456
11.9334,45456
11.9392,46357
11.945,45297
11.9508,46440
11.9565,46000
11.9623,49002
11.9681,48630
11.9739,48348
11.9796,48795
11.9854,47681
11.9912,48736
11.997,48261
12.0027,48990
12.0085,50777
12.0143,50420
12.0201,50405
12.0258,49661
12.0316,51913
12.0374,51192
12.0432,49341
12.0489,51306
12.0547,50004
12.0605,53295
12.0663,52679
12.072,53615
12.0778,51944
12.0836,51826
12.0894,53528
12.0951,53018
12.1009,53147
12.1067,56103
12.1125,52108
12.1182,52753
12.124,54295
12.1298,56745
12.1356,57090
12.1413,54864
12.1471,57042
12.1529,58175
12.1587,57270
12.1644,56688
12.1702,57987
12.176,58706
12.1818,59075
12.1875,57606
12.1933,58230
12.1991,59232
12.2049,58717
12.2106,60272
12.2164,59002
12.2222,60228
12.228,60451
12.2337,60052
12.2395,60096
12.2453,59666
12.2511,59262
12.2568,58833
12.2626,60813
12.2684,61548
12.2742,60179
12.28,63600
12.2857,61401
12.2915,61006
12.2973,63048
12.3031,62548
12.3088,62207
12.3146,62726
12.3204,61284
12.3262,62792
12.3319,62541
12.3377,62062
12.3435,63176
12.3493,64248
12.355,64752
12.3608,63906
12.3666,64482
12.3724,63797
12.3781,63960
12.3839,63676
12.3897,65141
12.3955,65266
12.4012,65020
12.407,64616
12.4128,64525
12.4186,64495
12.4243,65402
12.4301,63837
12.4359,65945
12.4417,66587
12.4474,63618
12.4532,65055
12.459,65310
12.4648,67200
12.4705,66370
12.4763,65011
12.4821,66968
12.4879,66393
12.4936,69131
12.4994,65507
12.5052,66303
12.511,66810
12.5167,66685
12.5225,67133
12.5283,65751
12.5341,68404
12.5398,68178
12.5456,65978
12.5514,65949
12.5572,66268
12.5629,66716
12.5687,66165
12.5745,67146
12.5803,69940
12.586,66441
12.5918,69879
12.5976,67515
12.6034,67548
12.6091,67038
12.6149,67678
12.6207,69439
12.6265,65997
12.6322,67458
12.638,65707
12.6438,69759
12.6496,66920
12.6553,66354
12.6611,67172
12.6669,67443
12.6727,67418
12.6785,66231
12.6842,67828
12.69,67591
12.6958,68000
12.7016,68096
12.7073,67873
