D:\MassHunter\GCMS\1\data\Elizabeth\B06\24.06.06\RAU-R505-4.D 06 Jun 24  03:59 pm
Start of data points
1.09285,27875906
1.09863,27468998
1.1044,26539408
1.11018,25833108
1.11597,25302056
1.12173,24608558
1.12752,24067128
1.13328,23631028
1.13907,23275120
1.14483,22723570
1.15062,22126202
1.15638,27644060
1.16217,674576
1.16793,519897
1.17372,463548
1.17948,452230
1.18527,521450
1.19103,699015
1.19682,1015011
1.20258,1366873
1.20837,1991584
1.21413,1559092
1.21992,312302
1.22568,208879
1.23147,193293
1.23725,180849
1.24302,174799
1.2488,288520
1.25457,672432
1.26035,1290741
1.26612,866163
1.2719,180064
1.27767,120356
1.28345,111466
1.28922,103238
1.295,97782
1.30077,94469
1.30655,86215
1.31232,82559
1.3181,81639
1.32387,109615
1.32965,265606
1.33542,429155
1.3412,171376
1.34697,72301
1.35275,60375
1.35852,54950
1.3643,53328
1.37008,49939
1.37585,48970
1.38163,46336
1.3874,44362
1.39318,42977
1.39895,41133
1.40473,38814
1.4105,36442
1.41628,34669
1.42205,34600
1.42783,33432
1.4336,31855
1.43938,51080
1.44515,225337
1.45093,221031
1.4567,145811
1.46248,79630
1.46825,36402
1.47403,27328
1.4798,30175
1.48558,125792
1.49135,719102
1.49713,1166978
1.50292,539651
1.50868,137619
1.51447,46038
1.52023,25189
1.52602,25576
1.53178,31053
1.53757,28643
1.54333,21289
1.54912,17479
1.55488,16176
1.56067,15387
1.56643,16000
1.57222,15094
1.57798,14653
1.58377,15549
1.58953,14053
1.59532,13326
1.60108,12994
1.60687,12346
1.61263,12801
1.61842,12317
1.6242,12212
1.62997,11915
1.63575,12048
1.64152,11536
1.6473,11000
1.65307,10333
1.65885,10310
1.66462,11024
1.6704,14051
1.67617,20340
1.68195,22838
1.68772,14537
1.6935,11110
1.69927,9347
1.70505,8726
1.71082,8946
1.7166,8567
1.72237,8515
1.72815,13554
1.73392,255766
1.7397,1951331
1.74547,3309309
1.75125,2098458
1.75703,761442
1.7628,244922
1.76858,77969
1.77435,25840
1.78013,26070
1.7859,57880
1.79168,61272
1.79745,40843
1.80323,42129
1.809,42331
1.81478,26256
1.82055,14303
1.82633,8431
1.8321,7293
1.83788,7870
1.84365,16156
1.84943,44374
1.8552,56478
1.86098,40108
1.86675,32689
1.87253,43519
1.87832,40719
1.88408,23624
1.88987,11331
1.89563,7943
1.90142,6255
1.90718,6133
1.91297,5303
1.91873,5495
1.92452,4995
1.93028,5326
1.93607,5228
1.94183,4994
1.94762,9264
1.95338,23377
1.95917,33779
1.96493,26834
1.97072,14596
1.97648,9213
1.98227,10548
1.98803,19033
1.99382,22448
1.99958,14693
2.00537,9353
2.01115,11348
2.01692,23552
2.0227,30716
2.02847,22805
2.03425,12603
2.04002,7365
2.0458,5305
2.05157,4259
2.05735,3245
2.06312,4177
2.0689,3520
2.07467,3959
2.08045,4466
2.08622,3853
2.092,4416
2.09777,4136
2.10355,3791
2.10932,3890
2.1151,4264
2.12087,3554
2.12665,3498
2.13243,3921
2.1382,3803
2.14398,3943
2.14975,3456
2.15553,3307
2.1613,4100
2.16708,4035
2.17285,3799
2.17863,3637
2.1844,3145
2.19018,3610
2.19595,3803
2.20173,3190
2.2075,3615
2.21328,3169
2.21905,3645
2.22483,3242
2.2306,2935
2.23638,2907
2.24215,2978
2.24793,3157
2.2537,2827
2.25948,3248
2.26527,3357
2.27103,3205
2.27682,2779
2.28258,2851
2.28837,2638
2.29413,2863
2.29992,2817
2.30568,2629
2.31147,2770
2.31723,2913
2.32302,2572
2.32878,3296
2.33457,3116
2.34033,2652
2.34612,2983
2.35188,2768
2.35767,2844
2.36343,2696
2.36922,2590
2.37498,2887
2.38077,2770
2.38653,2356
2.39232,2382
2.3981,2824
2.40387,2852
2.40965,2738
2.41542,2776
2.4212,2564
2.42697,2774
2.43275,2551
2.43852,2628
2.4443,3099
2.45007,2253
2.45585,2124
2.46162,2854
2.4674,2897
2.47317,2973
2.47895,2457
2.48472,2583
2.4905,2475
2.49627,2433
2.50205,2773
2.50782,2261
2.5136,2089
2.51938,1922
2.52515,2788
2.53093,2331
2.5367,2519
2.54248,2409
2.54825,2414
2.55403,2257
2.5598,2330
2.56558,2326
2.57135,2219
2.57713,2488
2.5829,2177
2.58868,2285
2.59445,2130
2.60023,2458
2.606,1946
2.61178,2122
2.61755,2254
2.62333,2521
2.6291,2084
2.63488,2215
2.64065,2178
2.64643,2134
2.65222,2246
2.65798,1805
2.66377,2431
2.66953,1969
2.67532,2194
2.68108,2177
2.68687,2220
2.69263,2140
2.69842,2073
2.70418,2158
2.70997,1944
2.71573,1843
2.72152,1886
2.72728,2176
2.73307,1961
2.73883,2047
2.74462,1951
2.75038,2195
2.75617,1928
2.76193,1693
2.76772,2195
2.7735,1997
2.77927,2114
2.78505,1769
2.79082,2204
2.7966,2153
2.80237,1751
2.80815,1757
2.81392,1907
2.8197,2043
2.82547,1854
2.83125,1637
2.83702,1918
2.8428,1720
2.84857,1992
2.85435,1887
2.86012,2107
2.8659,1933
2.87167,1700
2.87745,2203
2.88322,1551
2.889,1628
2.89477,1575
2.90055,1628
2.90633,1546
2.9121,1639
2.91788,1773
2.92365,1951
2.92943,1484
2.9352,1465
2.94098,1759
2.94675,1660
2.95253,1895
2.9583,1613
2.96408,1789
2.96985,1569
2.97563,1622
2.9814,1542
2.98718,1559
2.99295,1529
2.99873,1629
3.0045,1602
3.01028,1476
3.01605,1362
3.02183,1660
3.02762,1536
3.03338,1520
3.03917,1911
3.04493,1613
3.05072,1536
3.05648,1327
3.06227,1381
3.06803,1613
3.07382,1530
3.07958,1576
3.08537,1729
3.09113,1176
3.09692,1703
3.10268,1720
3.10847,1719
3.11423,1449
3.12002,1395
3.12578,1368
3.13157,1452
3.13733,1479
3.14312,1160
3.14888,1349
3.15467,1479
3.16045,1162
3.16622,1564
3.172,1180
3.17777,1481
3.18355,1470
3.18932,1621
3.1951,1413
3.20087,1464
3.20665,1376
3.21242,1455
3.2182,1175
3.22397,1701
3.22975,1438
3.23552,1390
3.2413,1287
3.24707,1369
3.25285,1247
3.25862,1365
3.2644,1482
3.27017,1402
3.27595,1394
3.28172,1181
3.2875,1410
3.29328,695
3.29905,1516
3.30483,1541
3.3106,1509
3.31638,1172
3.32215,1587
3.32793,1287
3.3337,956
3.33948,1042
3.34525,1420
3.35103,1226
3.3568,1300
3.36258,1460
3.36835,1258
3.37413,1298
3.3799,1001
3.38568,1358
3.39145,1435
3.39723,1160
3.403,1218
3.40878,1530
3.41457,806
3.42033,895
3.42612,1400
3.43188,927
3.43767,1123
3.44343,1207
3.44922,1232
3.45498,894
3.46077,1696
3.46653,1064
3.47232,1341
3.47808,1056
3.48387,1365
3.48963,1015
3.49542,1307
3.50118,1214
3.50697,1058
3.51273,953
3.51852,1150
3.52428,740
3.53007,1084
3.53583,899
3.54162,1334
3.5474,1272
3.55317,995
3.55895,939
3.56472,1273
3.5705,1207
3.57627,1122
3.58205,545
3.58782,1037
3.5936,1163
3.59937,1252
3.60515,785
3.61092,618
3.6167,1274
3.62247,1198
3.62825,1201
3.63402,963
3.6398,928
3.64557,970
3.65135,1207
3.65712,1150
3.6629,746
3.66867,998
3.67445,799
3.68023,922
3.686,685
3.69178,1078
3.69755,999
3.70333,898
3.7091,1328
3.71488,668
3.72065,1046
3.72643,1084
3.7322,871
3.73798,915
3.74375,865
3.74953,665
3.7553,1094
3.76108,939
3.76685,804
3.77263,912
3.7784,1247
3.78418,978
3.78995,840
3.79573,907
3.80152,984
3.80728,1128
3.81307,626
3.81883,816
3.82462,722
3.83038,1064
3.83617,1105
3.84193,680
3.84772,704
3.85348,963
3.85927,1103
3.86503,795
3.87082,781
3.87658,673
3.88237,715
3.88813,931
3.89392,731
3.89968,787
3.90547,693
3.91123,930
3.91702,1086
3.92278,776
3.92857,948
3.93435,910
3.94012,1125
3.9459,701
3.95167,844
3.95745,893
3.96322,705
3.969,602
3.97477,551
3.98055,913
3.98632,817
3.9921,554
3.99787,913
4.00365,935
4.00942,669
4.0152,667
4.02097,1051
4.02675,733
4.03252,1000
4.0383,703
4.04407,955
4.04985,515
4.05563,605
4.0614,798
4.06718,14891
4.07295,30622
4.07873,30299
4.0845,27202
4.09028,26057
4.09605,23095
4.10183,20846
4.1076,19934
4.11338,17339
4.11915,16410
4.12493,15519
4.1307,14836
4.13648,13147
4.14225,11983
4.14803,11720
4.1538,10709
4.15958,10275
4.16535,9532
4.17113,9316
4.1769,8081
4.18268,7735
4.18847,8245
4.19423,7994
4.20002,6487
4.20578,6859
4.21157,6486
4.21733,6196
4.22312,5447
4.22888,5529
4.23467,5586
4.24043,5221
4.24622,4934
4.25198,4626
4.25777,4691
4.26353,4167
4.26932,4287
4.27508,4482
4.28087,4391
4.28663,4025
4.29242,3951
4.29818,3721
4.30397,3721
4.30975,3509
4.31552,3145
4.3213,3699
4.32707,3215
4.33285,3197
4.33862,3148
4.3444,3172
4.35017,2723
4.35595,2889
4.36172,2721
4.3675,3156
4.37327,2888
4.37905,2602
4.38482,2513
4.3906,2755
4.39637,2605
4.40215,2172
4.40792,2803
4.4137,2472
4.41947,2720
4.42525,2366
4.43102,2675
4.4368,2067
4.44258,2188
4.44835,2308
4.45413,2384
4.4599,2046
4.46568,1779
4.47145,1598
4.47723,2016
4.483,1609
4.48878,1487
4.49455,2115
4.50033,2096
4.5061,1951
4.51188,1645
4.51765,1609
4.52343,2192
4.5292,1373
4.53498,1813
4.54075,1958
4.54653,1636
4.5523,1505
4.55808,2038
4.56385,1823
4.56963,1278
4.57542,1549
4.58118,1723
4.58697,1559
4.59273,1714
4.59852,1680
4.60428,2056
4.61007,1572
4.61583,1835
4.62162,1213
4.62738,1997
4.63317,1811
4.63893,1691
4.64472,1876
4.65048,1846
4.65627,1244
4.66203,1267
4.66782,1580
4.67358,1901
4.67937,1552
4.68513,1487
4.69092,1279
4.6967,1940
4.70247,1534
4.70825,1630
4.71402,1140
4.7198,1819
4.72557,1900
4.73135,2043
4.73712,1608
4.7429,1558
4.74867,1141
4.75445,1877
4.76022,1322
4.766,1450
4.77177,1489
4.77755,1224
4.78332,687
4.7891,1188
4.79487,1505
4.80065,1155
4.80642,970
4.8122,1546
4.81797,1401
4.82375,1883
4.82953,1962
4.8353,1913
4.84108,1106
4.84685,1417
4.85263,1360
4.8584,1309
4.86418,1461
4.86995,1546
4.87573,786
4.8815,1413
4.88728,1333
4.89305,1404
4.89883,1489
4.9046,1649
4.91038,1300
4.91615,1558
4.92193,1295
4.9277,1248
4.93348,1215
4.93925,1334
4.94503,1270
4.95082,1834
4.95658,934
4.96237,1364
4.96813,1512
4.97392,1334
4.97968,1428
4.98547,1233
4.99123,1611
4.99702,1428
5.00278,1165
5.00857,1393
5.01433,1436
5.02012,1265
5.02588,1105
5.03167,1195
5.03743,1384
5.04322,1749
5.04898,1174
5.05477,1492
5.06053,1422
5.06632,1041
5.07208,1357
5.07787,1572
5.08365,1744
5.08942,1132
5.0952,1105
5.10097,1115
5.10675,987
5.11252,1082
5.1183,1589
5.12407,1159
5.12985,1384
5.13562,1509
5.1414,1326
5.14717,1524
5.15295,1019
5.15872,1595
5.1645,1734
5.17027,1575
5.17605,1144
5.18182,1161
5.1876,1400
5.19337,1080
5.19915,1339
5.20492,1298
5.2107,1258
5.21648,1047
5.22225,1320
5.22803,1234
5.2338,995
5.23958,1225
5.24535,1225
5.25113,997
5.2569,1182
5.26268,901
5.26845,1383
5.27423,1173
5.28,1165
5.28578,1324
5.29155,1211
5.29733,1235
5.3031,1061
5.30888,1264
5.31465,1139
5.32043,1033
5.3262,1277
5.33198,1304
5.33777,1451
5.34353,1258
5.34932,899
5.35508,920
5.36087,1285
5.36663,1106
5.37242,1040
5.37818,1224
5.38397,1514
5.38973,1223
5.39552,1250
5.40128,756
5.40707,1208
5.41283,1097
5.41862,925
5.42438,1017
5.43017,1003
5.43593,1051
5.44172,938
5.44748,946
5.45327,1068
5.45903,1103
5.46482,1245
5.4706,1507
5.47637,978
5.48215,1280
5.48792,1123
5.4937,1307
5.49947,1473
5.50525,1606
5.51102,1209
5.5168,1756
5.52257,1043
5.52835,1354
5.53412,1104
5.5399,1462
5.54567,1627
5.55145,1243
5.55722,1442
5.563,1258
5.56877,1021
5.57455,1263
5.58032,1044
5.5861,1667
5.59188,1425
5.59765,1355
5.60343,1179
5.6092,1568
5.61498,1347
5.62075,1003
5.62653,1425
5.6323,1073
5.63808,1233
5.64385,1716
5.64963,1640
5.6554,1952
5.66118,1758
5.66695,1735
5.67273,1976
5.6785,1485
5.68428,1568
5.69005,1459
5.69583,1699
5.7016,1826
5.70738,1926
5.71315,1737
5.71893,2294
5.72472,1769
5.73048,1578
5.73627,1640
5.74203,1412
5.74782,1249
5.75358,1650
5.75937,2185
5.76513,1694
5.77092,1768
5.77668,1459
5.78247,1705
5.78823,1885
5.79402,1772
5.79978,1779
5.80557,1527
5.81133,1541
5.81712,1590
5.82288,1773
5.82867,1500
5.83443,1603
5.84022,1613
5.846,1870
5.85177,1602
5.85755,1872
5.86332,1616
5.8691,1313
5.87487,1517
5.88065,1586
5.88642,1416
5.8922,1644
5.89797,1493
5.90375,1503
5.90952,1522
5.9153,1515
5.92107,1385
5.92685,1526
5.93262,1360
5.9384,1237
5.94417,1245
5.94995,1520
5.95572,1309
5.9615,1513
5.96727,1098
5.97305,1430
5.97883,1088
5.9846,1390
5.99038,1448
5.99615,1238
6.00193,1385
6.0077,993
6.01348,1191
6.01925,1167
6.02503,1205
6.0308,1022
6.03658,1412
6.04235,1303
6.04813,494846
6.0539,1754660
6.05968,920873
6.06545,343283
6.07123,177294
6.077,113080
6.08278,80208
6.08855,60580
6.09433,47452
6.1001,39041
6.10588,30702
6.11167,27390
6.11743,23418
6.12322,20259
6.12898,17926
6.13477,16262
6.14053,14282
6.14632,13382
6.15208,11879
6.15787,10427
6.16363,10925
6.16942,9196
6.17518,8195
6.18097,7609
6.18673,7376
6.19252,7096
6.19828,6438
6.20407,6630
6.20983,6304
6.21562,5859
6.22138,5099
6.22717,5399
6.23295,4599
6.23872,5101
6.2445,4287
6.25027,5233
6.25605,6221
6.26182,5918
6.2676,5918
6.27337,5083
6.27915,3708
6.28492,4773
6.2907,102637
6.29647,866759
6.30225,1157806
6.30802,360556
6.3138,60061
6.31957,19901
6.32535,11767
6.33112,9253
6.3369,6761
6.34267,5592
6.34845,5174
6.35422,4703
6.36,4036
6.36578,3558
6.37155,3730
6.37733,3828
6.3831,3659
6.38888,2984
6.39465,3746
6.40043,2951
6.4062,3199
6.41198,2356
6.41775,2894
6.42353,2746
6.4293,3648
6.43508,2867
6.44085,2576
6.44663,2309
6.4524,2325
6.45818,2640
6.46395,2858
6.46973,2805
6.4755,2616
6.48128,2454
6.48705,3476
6.49283,6914
6.49862,8242
6.50438,6031
6.51017,4050
6.51593,3656
6.52172,3605
6.52748,3786
6.53327,3510
6.53903,2883
6.54482,2482
6.55058,2585
6.55637,1852
6.56213,1740
6.56792,2208
6.57368,1551
6.57947,1674
6.58523,2065
6.59102,1423
6.59678,1702
6.60257,1865
6.60833,1934
6.61412,1743
6.6199,2256
6.62567,1419
6.63145,1874
6.63722,1721
6.643,1644
6.64877,1589
6.65455,1610
6.66032,1122
6.6661,1909
6.67187,1577
6.67765,2040
6.68342,1462
6.6892,2185
6.69497,1808
6.70075,2018
6.70652,1692
6.7123,1952
6.71807,1629
6.72385,1670
6.72962,1741
6.7354,1695
6.74117,1530
6.74695,1120
6.75273,1612
6.7585,1656
6.76428,1611
6.77005,781
6.77583,1409
6.7816,1738
6.78738,2066
6.79315,1985
6.79893,1939
6.8047,1140
6.81048,1693
6.81625,1393
6.82203,1433
6.8278,996
6.83358,1036
6.83935,767
6.84513,1314
6.8509,1047
6.85668,1500
6.86245,1141
6.86823,1335
6.87402,1172
6.87978,898
6.88557,835
6.89133,864
6.89712,829
6.90288,1099
6.90867,1370
6.91443,1229
6.92022,784
6.92598,932
6.93177,1325
6.93753,899
6.94332,1132
6.94908,1071
6.95487,933
6.96063,1117
6.96642,1189
6.97218,1242
6.97797,1172
6.98373,977
6.98952,1397
6.99528,812
7.00107,801
7.00685,738
7.01262,904
7.0184,1176
7.02417,1138
7.02995,1395
7.03572,910
7.0415,855
7.04727,1000
7.05305,911
7.05882,863
7.0646,840
7.07037,923
7.07615,892
7.08192,667
7.0877,588
7.09347,705
7.09925,478
7.10502,549
7.1108,960
7.11657,1286
7.12235,1119
7.12812,1073
7.1339,1690
7.13968,1859
7.14545,2589
7.15123,3524
7.157,5733
7.16278,6432
7.16855,9770
7.17433,11683
7.1801,15647
7.18588,17464
7.19165,23559
7.19743,26663
7.2032,31733
7.20898,37000
7.21475,41520
7.22053,50232
7.2263,56055
7.23208,64215
7.23785,69244
7.24363,74708
7.2494,82267
7.25518,90408
7.26097,93858
7.26673,104039
7.27252,115718
7.27828,128079
7.28407,135319
7.28983,150944
7.29562,176553
7.30138,190842
7.30717,229527
7.31293,388968
7.31872,1512046
7.32448,1662734
7.33027,357406
7.33603,121657
7.34182,80340
7.34758,58783
7.35337,50197
7.35913,41366
7.36492,36914
7.37068,34551
7.37647,31505
7.38223,29500
7.38802,28538
7.3938,28270
7.39957,25996
7.40535,23514
7.41112,22184
7.4169,19141
7.42267,18463
7.42845,18107
7.43422,15144
7.44,14819
7.44577,15252
7.45155,14357
7.45732,12364
7.4631,12409
7.46887,12100
7.47465,10910
7.48042,11027
7.4862,10055
7.49197,10566
7.49775,9555
7.50352,9767
7.5093,10091
7.51508,8890
7.52085,9181
7.52663,9314
7.5324,8222
7.53818,8744
7.54395,8031
7.54973,8048
7.5555,7664
7.56128,7703
7.56705,7731
7.57283,7570
7.5786,7767
7.58438,6875
7.59015,6654
7.59593,7469
7.6017,7318
7.60748,7106
7.61325,7135
7.61903,7519
7.6248,7251
7.63058,6132
7.63635,6285
7.64213,6411
7.64792,6626
7.65368,6558
7.65947,6659
7.66523,6817
7.67102,6872
7.67678,5784
7.68257,6304
7.68833,6703
7.69412,5768
7.69988,6091
7.70567,5212
7.71143,6221
7.71722,5922
7.72298,6228
7.72877,6102
7.73453,6927
7.74032,6106
7.74608,6422
7.75187,6478
7.75763,6621
7.76342,6982
7.7692,7470
7.77497,8634
7.78075,9174
7.78652,15103
7.7923,18796
7.79807,13174
7.80385,9178
7.80962,8522
7.8154,8062
7.82117,8299
7.82695,7516
7.83272,6761
7.8385,5888
7.84427,5826
7.85005,6088
7.85582,6383
7.8616,6248
7.86737,6220
7.87315,5387
7.87892,6318
7.8847,5925
7.89047,5595
7.89625,5826
7.90203,5889
7.9078,5074
7.91358,5291
7.91935,5601
7.92513,5674
7.9309,4968
7.93668,5101
7.94245,5375
7.94823,5505
7.954,4897
7.95978,4917
7.96555,4652
7.97133,5513
7.9771,4356
7.98288,4790
7.98865,4411
7.99443,4452
8.0002,4869
8.00598,5577
8.01175,4636
8.01753,4732
8.0233,5127
8.02908,4369
8.03487,4502
8.04063,4499
8.04642,4704
8.05218,4161
8.05797,4289
8.06373,4948
8.06952,4578
8.07528,3947
8.08107,4977
8.08683,3874
8.09262,4245
8.09838,4012
8.10417,3822
8.10993,3877
8.11572,4148
8.12148,3770
8.12727,3809
8.13303,4052
8.13882,3920
8.14458,4274
8.15037,4529
8.15615,4209
8.16192,3415
8.1677,4096
8.17347,4057
8.17925,3687
8.18502,4390
8.1908,3645
8.19657,4567
8.20235,3560
8.20812,2977
8.2139,3867
8.21967,3262
8.22545,3464
8.23122,3211
8.237,4039
8.24277,3585
8.24855,4122
8.25432,3518
8.2601,3682
8.26587,2971
8.27165,3137
8.27742,3068
8.2832,3192
8.28898,3606
8.29475,2743
8.30053,3856
8.3063,3015
8.31208,3166
8.31785,2713
8.32363,3412
8.3294,2872
8.33518,2798
8.34095,2402
8.34673,3274
8.3525,2824
8.35828,3469
8.36405,2579
8.36983,2508
8.3756,2971
8.38138,2644
8.38715,2665
8.39293,2523
8.3987,2160
8.40448,2859
8.41027,2546
8.41603,2670
8.42182,2338
8.42758,2535
8.43337,2040
8.43913,1761
8.44492,2170
8.45068,2838
8.45647,2804
8.46223,2731
8.46802,2288
8.47378,2433
8.47957,2349
8.48533,2753
8.49112,2513
8.49688,2022
8.50267,2266
8.50843,2524
8.51422,2480
8.51998,2312
8.52577,2602
8.53153,2068
8.53732,2252
8.5431,2318
8.54887,1993
8.55465,1812
8.56042,2046
8.5662,2689
8.57197,1846
8.57775,1719
8.58352,1660
8.5893,1651
8.59507,1579
8.60085,2700
8.60662,1545
8.6124,2067
8.61817,1649
8.62395,1400
8.62972,1891
8.6355,1370
8.64127,1806
8.64705,1575
8.65282,1840
8.6586,2117
8.66438,1538
8.67015,1405
8.67593,1437
8.6817,1991
8.68748,1610
8.69325,1808
8.69903,1833
8.7048,949
8.71058,1215
8.71635,1841
8.72213,1199
8.7279,1425
8.73368,1247
8.73945,1689
8.74523,1676
8.751,1191
8.75678,1378
8.76255,1732
8.76833,1824
8.7741,1350
8.77988,1316
8.78565,1436
8.79143,1272
8.79722,1222
8.80298,1619
8.80877,1381
8.81453,1174
8.82032,823
8.82608,1226
8.83187,1241
8.83763,1411
8.84342,1020
8.84918,1259
8.85497,1553
8.86073,865
8.86652,1122
8.87228,1147
8.87807,912
8.88383,1168
8.88962,909
8.89538,1147
8.90117,1188
8.90693,1409
8.91272,1105
8.91848,1102
8.92427,1147
8.93005,1101
8.93582,1066
8.9416,980
8.94737,711
8.95315,1169
8.95892,951
8.9647,1535
8.97047,1071
8.97625,1073
8.98202,797
8.9878,773
8.99357,988
8.99935,799
9.00512,776
9.0109,568
9.01667,737
9.02245,817
9.02822,810
9.034,618
9.03977,703
9.04555,621
9.05133,948
9.0571,1102
9.06288,957
9.06865,597
9.07443,1118
9.0802,718
9.08598,623
9.09175,759
9.09753,814
9.1033,1128
9.10908,783
9.11485,637
9.12063,978
9.1264,1101
9.13218,695
9.13795,714
9.14373,851
9.1495,940
9.15528,603
9.16105,796
9.16683,413
9.1726,666
9.17838,1305
9.18417,587
9.18993,629
9.19572,842
9.20148,565
9.20727,451
9.21303,1149
9.21882,794
9.22458,847
9.23037,978
9.23613,914
9.24192,373
9.24768,740
9.25347,1005
9.25923,713
9.26502,1008
9.27078,441
9.27657,937
9.28233,641
9.28812,1055
9.29388,675
9.29967,917
9.30543,541
9.31122,1035
9.317,701
9.32277,796
9.32855,868
9.33432,898
9.3401,722
9.34587,1020
9.35165,379
9.35742,443
9.3632,569
9.36897,757
9.37475,910
9.38052,518
9.3863,599
9.39207,690
9.39785,1030
9.40362,789
9.4094,1022
9.41517,1042
9.42095,931
9.42672,502
9.4325,980
9.43828,781
9.44405,1098
9.44983,642
9.4556,863
9.46138,775
9.46715,740
9.47293,822
9.4787,878
9.48448,532
9.49025,715
9.49603,1195
9.5018,1075
9.50758,718
9.51335,853
9.51913,1144
9.5249,988
9.53068,1114
9.53645,1032
9.54223,934
9.548,846
9.55378,993
9.55955,707
9.56533,1186
9.57112,667
9.57688,772
9.58267,1131
9.58843,1100
9.59422,952
9.59998,598
9.60577,833
9.61153,1075
9.61732,824
9.62308,725
9.62887,910
9.63463,996
9.64042,987
9.64618,908
9.65197,761
9.65773,900
9.66352,972
9.66928,634
9.67507,845
9.68083,651
9.68662,776
9.6924,1229
9.69817,1047
9.70395,802
9.70972,956
9.7155,971
9.72127,630
9.72705,700
9.73282,1104
9.7386,671
9.74437,714
9.75015,763
9.75592,1468
9.7617,571
9.76747,924
9.77325,1255
9.77902,498
9.7848,751
9.79057,868
9.79635,1325
9.80212,1087
9.8079,1157
9.81367,778
9.81945,984
9.82523,1440
9.831,947
9.83678,1276
9.84255,1721
9.84833,1077
9.8541,937
9.85988,1373
9.86565,1406
9.87143,1244
9.8772,1071
9.88298,1316
9.88875,1522
9.89453,1134
9.9003,1514
9.90608,1098
9.91185,1344
9.91763,1201
9.9234,1309
9.92918,1162
9.93495,1294
9.94073,1546
9.9465,1257
9.95228,1008
9.95807,1148
9.96383,1395
9.96962,786
9.97538,1782
9.98117,1370
9.98693,1659
9.99272,1028
9.99848,2247
10.0043,1516
10.01,2341
10.0158,1601
10.0216,1645
10.0274,1842
10.0331,1340
10.0389,1845
10.0447,1126
10.0505,2075
10.0562,1783
10.062,1948
10.0678,1764
10.0736,2002
10.0794,2106
10.0851,2120
10.0909,1507
10.0967,1972
10.1025,1422
10.1082,1361
10.114,1591
10.1198,1650
10.1256,1422
10.1313,1781
10.1371,1823
10.1429,1663
10.1487,2130
10.1544,4171
10.1602,10536
10.166,8554
10.1718,5862
10.1775,3909
10.1833,2836
10.1891,2353
10.1949,2223
10.2006,1644
10.2064,1888
10.2122,1644
10.218,2122
10.2237,2355
10.2295,2227
10.2353,2713
10.2411,2101
10.2468,2103
10.2526,2103
10.2584,2239
10.2642,2370
10.2699,1643
10.2757,4936
10.2815,63586
10.2873,263113
10.293,308451
10.2988,210450
10.3046,144722
10.3104,106628
10.3161,78874
10.3219,63384
10.3277,53380
10.3335,41498
10.3392,33336
10.345,30769
10.3508,25174
10.3566,23411
10.3623,19725
10.3681,16070
10.3739,15366
10.3797,12918
10.3854,11792
10.3912,10393
10.397,10054
10.4028,9158
10.4085,8311
10.4143,8008
10.4201,7973
10.4259,7522
10.4316,6542
10.4374,6169
10.4432,7007
10.449,6155
10.4547,6033
10.4605,6168
10.4663,6557
10.4721,4977
10.4779,4913
10.4836,5689
10.4894,4791
10.4952,5563
10.501,5359
10.5067,4714
10.5125,5500
10.5183,4909
10.5241,5016
10.5298,4804
10.5356,4884
10.5414,4493
10.5472,4623
10.5529,5087
10.5587,5183
10.5645,4351
10.5703,5097
10.576,4160
10.5818,5262
10.5876,4378
10.5934,4684
10.5991,4537
10.6049,4238
10.6107,4739
10.6165,4894
10.6222,4961
10.628,4670
10.6338,4326
10.6396,4433
10.6453,4816
10.6511,4553
10.6569,5257
10.6627,5094
10.6684,5014
10.6742,5347
10.68,5946
10.6858,5060
10.6915,5517
10.6973,5226
10.7031,4979
10.7089,5983
10.7146,4966
10.7204,5220
10.7262,6033
10.732,5909
10.7377,5637
10.7435,5930
10.7493,5772
10.7551,5501
10.7608,4866
10.7666,5906
10.7724,5323
10.7782,4762
10.7839,6911
10.7897,6046
10.7955,5883
10.8013,6802
10.807,5996
10.8128,6230
10.8186,6353
10.8244,6551
10.8301,6114
10.8359,6059
10.8417,7110
10.8475,6829
10.8533,6840
10.859,6855
10.8648,7553
10.8706,7159
10.8764,7941
10.8821,7678
10.8879,7087
10.8937,7263
10.8995,7131
10.9052,7921
10.911,6761
10.9168,7449
10.9226,7578
10.9283,7539
10.9341,8914
10.9399,7506
10.9457,8330
10.9514,7729
10.9572,8440
10.963,8351
10.9688,7329
10.9745,8273
10.9803,7862
10.9861,7797
10.9919,8445
10.9976,8237
11.0034,8972
11.0092,8567
11.015,9202
11.0207,8909
11.0265,9289
11.0323,9602
11.0381,9653
11.0438,9341
11.0496,9833
11.0554,9224
11.0612,9426
11.0669,9682
11.0727,9434
11.0785,9641
11.0843,9637
11.09,9302
11.0958,9944
11.1016,9964
11.1074,10687
11.1131,11514
11.1189,10968
11.1247,11504
11.1305,11201
11.1362,11237
11.142,11320
11.1478,11594
11.1536,10630
11.1593,11445
11.1651,11380
11.1709,11008
11.1767,11543
11.1824,11974
11.1882,11485
11.194,11701
11.1998,11923
11.2055,11969
11.2113,12890
11.2171,12639
11.2229,13029
11.2287,13807
11.2344,13554
11.2402,12985
11.246,13561
11.2518,13528
11.2575,13701
11.2633,13495
11.2691,15027
11.2749,14169
11.2806,14683
11.2864,14428
11.2922,14924
11.298,14528
11.3037,14734
11.3095,15672
11.3153,15280
11.3211,16624
11.3268,17227
11.3326,16559
11.3384,16361
11.3442,15747
11.3499,16763
11.3557,16710
11.3615,16418
11.3673,15893
11.373,16789
11.3788,16403
11.3846,16747
11.3904,17286
11.3961,17300
11.4019,18711
11.4077,17333
11.4135,19586
11.4192,19559
11.425,18958
11.4308,19341
11.4366,19318
11.4423,19262
11.4481,18636
11.4539,19537
11.4597,19359
11.4654,20613
11.4712,20074
11.477,20741
11.4828,20358
11.4885,20939
11.4943,21682
11.5001,21458
11.5059,21717
11.5116,22108
11.5174,21954
11.5232,22086
11.529,23314
11.5347,23838
11.5405,24096
11.5463,24099
11.5521,25369
11.5578,25054
11.5636,26543
11.5694,24237
11.5752,23681
11.5809,26329
11.5867,25507
11.5925,26933
11.5983,27082
11.604,26729
11.6098,25965
11.6156,28203
11.6214,27673
11.6272,27176
11.6329,29084
11.6387,27127
11.6445,28353
11.6503,28331
11.656,28218
11.6618,29073
11.6676,29452
11.6734,30384
11.6791,31554
11.6849,31436
11.6907,31116
11.6965,32825
11.7022,33119
11.708,33708
11.7138,33059
11.7196,35313
11.7253,34788
11.7311,34475
11.7369,33959
11.7427,34292
11.7484,36606
11.7542,35542
11.76,35464
11.7658,39348
11.7715,37232
11.7773,37177
11.7831,37595
11.7889,38400
11.7946,39417
11.8004,39319
11.8062,38491
11.812,39430
11.8177,38301
11.8235,39357
11.8293,39355
11.8351,40038
11.8408,41591
11.8466,41322
11.8524,41180
11.8582,43284
11.8639,44243
11.8697,43476
11.8755,42604
11.8813,43415
11.887,45320
11.8928,43244
11.8986,43933
11.9044,43709
11.9101,45352
11.9159,45729
11.9217,44652
11.9275,45741
11.9332,46249
11.939,48227
11.9448,47800
11.9506,47910
11.9563,47612
11.9621,48882
11.9679,48494
11.9737,46651
11.9794,47191
11.9852,45886
11.991,49176
11.9968,50716
12.0026,49847
12.0083,51346
12.0141,52862
12.0199,51386
12.0257,50997
12.0314,52767
12.0372,50215
12.043,52550
12.0488,51761
12.0545,51581
12.0603,51434
12.0661,54016
12.0719,53134
12.0776,54079
12.0834,54262
12.0892,53654
12.095,54114
12.1007,54452
12.1065,54476
12.1123,55560
12.1181,56216
12.1238,55815
12.1296,55771
12.1354,54834
12.1412,55227
12.1469,56790
12.1527,58626
12.1585,57987
12.1643,57210
12.17,59598
12.1758,58275
12.1816,58319
12.1874,57571
12.1931,57311
12.1989,58482
12.2047,60096
12.2105,59987
12.2162,57203
12.222,60477
12.2278,61821
12.2336,59318
12.2393,61882
12.2451,60778
12.2509,61097
12.2567,62441
12.2624,63753
12.2682,62010
12.274,61824
12.2798,61611
12.2855,62101
12.2913,62383
12.2971,62997
12.3029,62296
12.3086,62042
12.3144,63046
12.3202,63780
12.326,64292
12.3317,65488
12.3375,63393
12.3433,63661
12.3491,64276
12.3548,65798
12.3606,64221
12.3664,65400
12.3722,66562
12.3779,64245
12.3837,66004
12.3895,65324
12.3953,66709
12.4011,66274
12.4068,64743
12.4126,66549
12.4184,65394
12.4242,65775
12.4299,66481
12.4357,65533
12.4415,66042
12.4473,65997
12.453,67388
12.4588,65455
12.4646,67201
12.4704,66883
12.4761,65559
12.4819,65484
12.4877,68841
12.4935,68026
12.4992,68506
12.505,68374
12.5108,65515
12.5166,68889
12.5223,68040
12.5281,65341
12.5339,66184
12.5397,68021
12.5454,65865
12.5512,65913
12.557,66902
12.5628,66851
12.5685,67086
12.5743,68506
12.5801,68563
12.5859,65205
12.5916,67902
12.5974,66204
12.6032,70172
12.609,68327
12.6147,67704
12.6205,66476
12.6263,66993
12.6321,69209
12.6378,67675
12.6436,67746
12.6494,68594
12.6552,67762
12.6609,67312
12.6667,65883
12.6725,66086
12.6783,69390
12.684,67585
12.6898,66274
12.6956,67209
12.7014,67748
12.7071,69355
