D:\MassHunter\GCMS\1\data\Elizabeth\B06\24.06.06\RAU-R505-15.D 06 Jun 24  08:00 pm
Start of data points
1.09305,28292858
1.09883,27755790
1.1046,26719572
1.11038,25928182
1.11615,25432332
1.12193,24901816
1.1277,24320738
1.13348,23700160
1.13925,23515100
1.14503,23012300
1.1508,22313276
1.15658,27396276
1.16235,699653
1.16813,549630
1.1739,493328
1.17968,463843
1.18545,508129
1.19123,668752
1.197,968645
1.20278,1321285
1.20857,1892468
1.21433,1643647
1.22012,348176
1.22588,227012
1.23167,207286
1.23743,193028
1.24322,184542
1.24898,260867
1.25477,596679
1.26053,1200373
1.26632,977378
1.27208,219490
1.27787,129240
1.28363,119165
1.28942,114294
1.29518,108409
1.30097,100321
1.30673,95632
1.31252,90155
1.31828,87618
1.32407,101209
1.32983,223840
1.33562,431287
1.3414,217162
1.34717,82137
1.35295,66285
1.35872,60757
1.3645,58073
1.37027,56074
1.37605,53524
1.38182,51563
1.3876,50111
1.39337,46905
1.39915,44681
1.40492,43332
1.4107,40942
1.41647,39639
1.42225,38769
1.42802,37152
1.4338,34845
1.43957,40123
1.44535,162475
1.45112,257892
1.4569,160127
1.46268,102975
1.46845,45766
1.47423,30223
1.48,28588
1.48578,61537
1.49155,440996
1.49733,1139052
1.5031,765106
1.50888,221160
1.51465,65634
1.52043,30540
1.5262,22820
1.53198,30054
1.53775,31092
1.54353,24198
1.5493,20254
1.55508,18634
1.56085,17358
1.56663,17339
1.5724,16597
1.57818,15189
1.58395,15403
1.58973,15434
1.59552,14943
1.60128,14815
1.60707,14398
1.61283,13715
1.61862,13002
1.62438,12860
1.63017,12869
1.63593,11879
1.64172,12396
1.64748,11991
1.65327,12141
1.65903,11062
1.66482,11301
1.67058,11581
1.67637,17271
1.68213,24254
1.68792,19806
1.69368,13439
1.69947,10756
1.70523,10249
1.71102,10039
1.7168,9400
1.72257,9201
1.72835,9847
1.73412,41903
1.7399,795819
1.74567,2880569
1.75145,2989491
1.75722,1399017
1.763,480874
1.76877,157679
1.77455,49886
1.78032,20940
1.7861,37232
1.79187,63491
1.79765,53210
1.80342,40370
1.8092,44292
1.81497,37173
1.82075,21226
1.82652,13348
1.8323,9103
1.83807,7269
1.84385,9425
1.84963,23969
1.8554,52700
1.86118,55693
1.86695,35983
1.87273,34202
1.8785,45387
1.88428,36728
1.89005,19967
1.89583,10967
1.9016,8382
1.90738,6519
1.91315,5959
1.91893,5443
1.9247,6222
1.93048,5323
1.93625,5538
1.94203,5707
1.9478,6098
1.95358,11964
1.95935,28092
1.96513,35413
1.9709,23845
1.97668,13278
1.98247,9612
1.98823,12573
1.99402,21233
1.99978,21392
2.00557,13749
2.01133,9413
2.01712,15314
2.02288,27887
2.02867,29965
2.03443,20249
2.04022,10888
2.04598,6593
2.05177,5617
2.05753,4420
2.06332,4562
2.06908,4660
2.07487,4143
2.08063,4045
2.08642,4822
2.09218,4630
2.09797,4300
2.10375,4493
2.10952,4112
2.1153,4494
2.12107,4238
2.12685,4194
2.13262,3911
2.1384,4042
2.14417,4485
2.14995,4208
2.15572,3491
2.1615,4042
2.16727,4878
2.17305,3905
2.17882,3755
2.1846,3490
2.19037,3388
2.19615,3534
2.20192,3861
2.2077,3390
2.21347,3516
2.21925,3709
2.22502,3641
2.2308,3799
2.23658,3192
2.24235,3423
2.24813,3538
2.2539,3572
2.25968,3500
2.26545,3805
2.27123,3595
2.277,3444
2.28278,2926
2.28855,3424
2.29433,3088
2.3001,3417
2.30588,3326
2.31165,3404
2.31743,3164
2.3232,3229
2.32898,2899
2.33475,3054
2.34053,2921
2.3463,3082
2.35208,2718
2.35787,3291
2.36363,3121
2.36942,2885
2.37518,3418
2.38097,2782
2.38673,3051
2.39252,3036
2.39828,3021
2.40407,2896
2.40983,2728
2.41562,2721
2.42138,2956
2.42717,2614
2.43293,2844
2.43872,3047
2.44448,2597
2.45027,2569
2.45603,2964
2.46182,2907
2.46758,3111
2.47337,2917
2.47913,2755
2.48492,2661
2.4907,2897
2.49647,2665
2.50225,2879
2.50802,2320
2.5138,2357
2.51957,2428
2.52535,2429
2.53112,2688
2.5369,2519
2.54267,2617
2.54845,2277
2.55422,2828
2.56,2192
2.56577,2723
2.57155,2877
2.57732,2952
2.5831,2494
2.58887,2513
2.59465,2738
2.60042,2479
2.6062,2309
2.61198,2625
2.61775,2102
2.62353,2578
2.6293,2278
2.63508,2535
2.64085,2285
2.64663,2210
2.6524,2180
2.65818,2369
2.66395,2555
2.66973,2551
2.6755,2446
2.68128,1974
2.68705,2240
2.69283,2346
2.6986,2544
2.70438,2475
2.71015,2307
2.71593,2399
2.7217,2082
2.72748,2071
2.73325,2261
2.73903,1802
2.74482,1896
2.75058,1906
2.75637,2087
2.76213,2224
2.76792,1874
2.77368,2168
2.77947,1906
2.78523,2083
2.79102,1969
2.79678,1936
2.80257,2103
2.80833,2197
2.81412,2050
2.81988,2057
2.82567,1907
2.83143,1789
2.83722,2093
2.84298,2003
2.84877,1987
2.85453,2509
2.86032,2159
2.86608,1863
2.87187,1868
2.87765,1867
2.88342,1499
2.8892,2071
2.89497,1763
2.90075,1641
2.90652,2016
2.9123,1764
2.91807,2130
2.92385,1726
2.92962,1695
2.9354,1932
2.94117,1773
2.94695,1897
2.95272,1787
2.9585,1913
2.96427,1801
2.97005,1772
2.97582,1804
2.9816,1887
2.98737,1988
2.99315,1624
2.99892,1929
3.0047,2026
3.01048,2190
3.01625,1968
3.02203,1581
3.0278,1778
3.03358,1818
3.03935,1849
3.04513,1721
3.0509,1691
3.05668,1909
3.06245,1694
3.06823,1845
3.074,1637
3.07978,2071
3.08555,1776
3.09133,1571
3.0971,1791
3.10288,1667
3.10865,1780
3.11443,1707
3.1202,1567
3.12598,1580
3.13177,1940
3.13753,1983
3.14332,1616
3.14908,1575
3.15487,1695
3.16063,1766
3.16642,1549
3.17218,1725
3.17797,1253
3.18373,1233
3.18952,2045
3.19528,1667
3.20107,1791
3.20683,1796
3.21262,1260
3.21838,1340
3.22417,1193
3.22993,1620
3.23572,1659
3.24148,1125
3.24727,1587
3.25303,1584
3.25882,1441
3.2646,1277
3.27037,1283
3.27615,1842
3.28192,1409
3.2877,1528
3.29347,1414
3.29925,1485
3.30502,1545
3.3108,1330
3.31657,1371
3.32235,1352
3.32812,1288
3.3339,1564
3.33967,1157
3.34545,1798
3.35122,1403
3.357,1363
3.36277,1592
3.36855,1414
3.37432,1179
3.3801,1493
3.38588,1312
3.39165,1222
3.39743,1003
3.4032,1511
3.40898,1772
3.41475,1391
3.42053,1533
3.4263,1046
3.43208,1344
3.43785,1492
3.44363,891
3.4494,1077
3.45518,1389
3.46095,1548
3.46673,1460
3.4725,1214
3.47828,1334
3.48405,1161
3.48983,1245
3.4956,1598
3.50138,1086
3.50715,1148
3.51293,1189
3.51872,1587
3.52448,1623
3.53027,966
3.53603,998
3.54182,1338
3.54758,1466
3.55337,1074
3.55913,1283
3.56492,1207
3.57068,1152
3.57647,1133
3.58223,1207
3.58802,1099
3.59378,1208
3.59957,1084
3.60533,1340
3.61112,1400
3.61688,1165
3.62267,1136
3.62843,1070
3.63422,1321
3.64,1418
3.64577,1166
3.65155,1216
3.65732,1477
3.6631,1411
3.66887,983
3.67465,1099
3.68042,1288
3.6862,1015
3.69197,1270
3.69775,1385
3.70352,1089
3.7093,1065
3.71507,1094
3.72085,1279
3.72662,1374
3.7324,943
3.73817,809
3.74395,983
3.74972,1197
3.7555,1247
3.76127,1247
3.76705,1104
3.77283,916
3.7786,999
3.78438,1024
3.79015,1062
3.79593,881
3.8017,1082
3.80748,814
3.81325,1341
3.81903,993
3.8248,1255
3.83058,888
3.83635,1021
3.84213,880
3.8479,828
3.85368,955
3.85945,988
3.86523,1246
3.871,1026
3.87678,852
3.88255,853
3.88833,1045
3.8941,1122
3.89988,689
3.90567,823
3.91143,1099
3.91722,951
3.92298,1094
3.92877,705
3.93453,872
3.94032,1382
3.94608,1050
3.95187,756
3.95763,704
3.96342,767
3.96918,1013
3.97497,1219
3.98073,861
3.98652,531
3.99228,644
3.99807,1099
4.00383,804
4.00962,730
4.01538,885
4.02117,889
4.02695,1188
4.03272,884
4.0385,1354
4.04427,804
4.05005,568
4.05582,758
4.0616,620
4.06737,852
4.07315,946
4.07892,1385
4.0847,1022
4.09047,1044
4.09625,17345
4.10202,19160
4.1078,18072
4.11357,17041
4.11935,16990
4.12512,14440
4.1309,14640
4.13667,13342
4.14245,11221
4.14822,12004
4.154,10667
4.15978,9425
4.16555,9302
4.17133,9528
4.1771,7821
4.18288,8007
4.18865,7143
4.19443,7130
4.2002,6347
4.20598,6659
4.21175,5853
4.21753,5833
4.2233,4839
4.22908,5317
4.23485,4908
4.24063,4878
4.2464,4920
4.25218,4766
4.25795,4315
4.26373,3917
4.2695,3898
4.27528,4054
4.28107,3551
4.28683,3493
4.29262,3917
4.29838,3420
4.30417,3312
4.30993,3422
4.31572,3236
4.32148,3143
4.32727,2999
4.33303,3188
4.33882,2784
4.34458,2480
4.35037,3166
4.35613,2971
4.36192,2223
4.36768,2713
4.37347,2809
4.37923,2647
4.38502,3148
4.39078,2585
4.39657,2591
4.40233,2427
4.40812,2379
4.4139,2399
4.41967,2590
4.42545,2304
4.43122,2612
4.437,2195
4.44277,2260
4.44855,2019
4.45432,2629
4.4601,1898
4.46587,1721
4.47165,1781
4.47742,2183
4.4832,2002
4.48897,1695
4.49475,2295
4.50052,1965
4.5063,1627
4.51207,2038
4.51785,2210
4.52362,1756
4.5294,1539
4.53518,1995
4.54095,2006
4.54673,1915
4.5525,2035
4.55828,1911
4.56405,2000
4.56983,1985
4.5756,2002
4.58138,2200
4.58715,1760
4.59293,1710
4.5987,1785
4.60448,1936
4.61025,1824
4.61603,1751
4.6218,1823
4.62758,1697
4.63335,1617
4.63913,1676
4.6449,1710
4.65068,1920
4.65645,1746
4.66223,1600
4.66802,1411
4.67378,1860
4.67957,1950
4.68533,1609
4.69112,1819
4.69688,1801
4.70267,1836
4.70843,1494
4.71422,2021
4.71998,1600
4.72577,1541
4.73153,1777
4.73732,1706
4.74308,1357
4.74887,1973
4.75463,2028
4.76042,1719
4.76618,1367
4.77197,1438
4.77773,1588
4.78352,1458
4.78928,1591
4.79507,1366
4.80085,1068
4.80662,1449
4.8124,1203
4.81817,1404
4.82395,1728
4.82972,2114
4.8355,2435
4.84127,1718
4.84705,1515
4.85282,1134
4.8586,1493
4.86437,1556
4.87015,1770
4.87592,1359
4.8817,1716
4.88747,1465
4.89325,1228
4.89902,1429
4.9048,1265
4.91057,1597
4.91635,1281
4.92213,1283
4.9279,1290
4.93368,1307
4.93945,1523
4.94523,1725
4.951,1394
4.95678,1184
4.96255,1323
4.96833,1867
4.9741,1069
4.97988,1623
4.98565,1487
4.99143,1482
4.9972,1556
5.00298,1762
5.00875,1167
5.01453,1369
5.0203,1611
5.02608,1504
5.03185,1336
5.03763,1324
5.0434,1741
5.04918,977
5.05497,1432
5.06073,1542
5.06652,1307
5.07228,1527
5.07807,1198
5.08383,1290
5.08962,1380
5.09538,1330
5.10117,1753
5.10693,1248
5.11272,1216
5.11848,1564
5.12427,1294
5.13003,1209
5.13582,1044
5.14158,1299
5.14737,1383
5.15313,1320
5.15892,1607
5.16468,990
5.17047,1602
5.17625,1470
5.18202,1057
5.1878,1256
5.19357,1642
5.19935,1422
5.20512,1537
5.2109,1499
5.21667,1282
5.22245,1200
5.22822,1049
5.234,1529
5.23977,1575
5.24555,1301
5.25132,1191
5.2571,1792
5.26287,1236
5.26865,1311
5.27442,1407
5.2802,1265
5.28597,1380
5.29175,1527
5.29752,989
5.3033,1514
5.30908,1579
5.31485,1653
5.32063,1549
5.3264,1033
5.33218,1504
5.33795,1192
5.34373,1501
5.3495,1602
5.35528,1483
5.36105,1120
5.36683,1562
5.3726,1499
5.37838,1358
5.38415,1286
5.38993,1529
5.3957,928
5.40148,1578
5.40725,1347
5.41303,1212
5.4188,1237
5.42458,1103
5.43035,1521
5.43613,1420
5.44192,1733
5.44768,1399
5.45347,1278
5.45923,1372
5.46502,1254
5.47078,1704
5.47657,1056
5.48233,1630
5.48812,1185
5.49388,1265
5.49967,1559
5.50543,1638
5.51122,1376
5.51698,1042
5.52277,1591
5.52853,1201
5.53432,1345
5.54008,1601
5.54587,1310
5.55163,918
5.55742,1463
5.5632,1184
5.56897,1274
5.57475,1287
5.58052,1167
5.5863,1256
5.59207,1598
5.59785,1304
5.60362,1436
5.6094,1495
5.61517,1312
5.62095,1631
5.62672,1765
5.6325,1605
5.63827,1204
5.64405,1328
5.64982,1562
5.6556,1502
5.66137,1157
5.66715,1650
5.67292,1773
5.6787,1859
5.68447,2022
5.69025,1762
5.69603,1465
5.7018,1741
5.70758,1939
5.71335,1818
5.71913,1866
5.7249,1613
5.73068,1667
5.73645,2086
5.74223,1491
5.748,1925
5.75378,1845
5.75955,1889
5.76533,1685
5.7711,1522
5.77688,1897
5.78265,1917
5.78843,1614
5.7942,1848
5.79998,1622
5.80575,1944
5.81153,1726
5.8173,2185
5.82308,1869
5.82887,1534
5.83463,1628
5.84042,1362
5.84618,1473
5.85197,1617
5.85773,1762
5.86352,1655
5.86928,1985
5.87507,1727
5.88083,1577
5.88662,1541
5.89238,1529
5.89817,1268
5.90393,1387
5.90972,1773
5.91548,1528
5.92127,1422
5.92703,1283
5.93282,1095
5.93858,1590
5.94437,1365
5.95015,1561
5.95592,1583
5.9617,1287
5.96747,1363
5.97325,1318
5.97902,1343
5.9848,1202
5.99057,1609
5.99635,941
6.00212,1335
6.0079,1562
6.01367,1070
6.01945,1464
6.02522,1234
6.031,1194
6.03677,1431
6.04255,1166
6.04832,1382
6.0541,125717
6.05987,425075
6.06565,268199
6.07142,152391
6.0772,95571
6.08298,61421
6.08875,46732
6.09453,37231
6.1003,30423
6.10608,24500
6.11185,20861
6.11763,17947
6.1234,15960
6.12918,13086
6.13495,11859
6.14073,10423
6.1465,9843
6.15228,8935
6.15805,8500
6.16383,7697
6.1696,6884
6.17538,6241
6.18115,5564
6.18693,5782
6.1927,5657
6.19848,5421
6.20427,5163
6.21003,4723
6.21582,4718
6.22158,4770
6.22737,3796
6.23313,3277
6.23892,3173
6.24468,3641
6.25047,3857
6.25623,6674
6.26202,5074
6.26778,4633
6.27357,3458
6.27933,3562
6.28512,3793
6.29088,119514
6.29667,1135444
6.30243,1534571
6.30822,518246
6.31398,93618
6.31977,26224
6.32553,15223
6.33132,10578
6.3371,7003
6.34287,6285
6.34865,5548
6.35442,4357
6.3602,4167
6.36597,3426
6.37175,3340
6.37752,2853
6.3833,2882
6.38907,2897
6.39485,3527
6.40062,3516
6.4064,2420
6.41217,2803
6.41795,2969
6.42372,1819
6.4295,2654
6.43527,2294
6.44105,2366
6.44682,2273
6.4526,2080
6.45838,2022
6.46415,1702
6.46993,1448
6.4757,1710
6.48148,2273
6.48725,3004
6.49303,7180
6.4988,9146
6.50458,6220
6.51035,4618
6.51613,3574
6.5219,4034
6.52768,4322
6.53345,3046
6.53923,1923
6.545,1897
6.55078,2123
6.55655,2494
6.56233,2119
6.5681,1349
6.57388,1395
6.57965,1775
6.58543,1575
6.59122,1791
6.59698,1810
6.60277,1243
6.60853,1127
6.61432,1505
6.62008,2198
6.62587,1289
6.63163,1682
6.63742,978
6.64318,1367
6.64897,1411
6.65473,1518
6.66052,1619
6.66628,1900
6.67207,2056
6.67783,1507
6.68362,1757
6.68938,1614
6.69517,1164
6.70093,1192
6.70672,1744
6.71248,1267
6.71827,1092
6.72405,1323
6.72982,1109
6.7356,1202
6.74137,1886
6.74715,1054
6.75292,1039
6.7587,1313
6.76447,751
6.77025,1245
6.77602,955
6.7818,1228
6.78757,1105
6.79335,938
6.79912,1095
6.8049,764
6.81067,1130
6.81645,1020
6.82222,1350
6.828,950
6.83377,989
6.83955,733
6.84533,976
6.8511,1274
6.85688,927
6.86265,848
6.86843,516
6.8742,630
6.87998,651
6.88575,479
6.89153,1098
6.8973,868
6.90308,960
6.90885,761
6.91463,833
6.9204,808
6.92618,578
6.93195,1485
6.93773,570
6.9435,739
6.94928,797
6.95505,710
6.96083,624
6.9666,1120
6.97238,839
6.97817,894
6.98393,775
6.98972,945
6.99548,854
7.00127,876
7.00703,882
7.01282,596
7.01858,1188
7.02437,772
7.03013,653
7.03592,852
7.04168,1207
7.04747,905
7.05323,907
7.05902,1037
7.06478,894
7.07057,868
7.07633,949
7.08212,513
7.08788,743
7.09367,1011
7.09945,944
7.10522,1031
7.111,768
7.11677,708
7.12255,860
7.12832,1002
7.1341,1029
7.13987,1628
7.14565,1673
7.15142,3010
7.1572,3061
7.16297,3681
7.16875,5792
7.17452,7081
7.1803,9772
7.18607,12209
7.19185,14338
7.19762,17843
7.2034,20729
7.20917,26599
7.21495,29369
7.22072,35276
7.2265,39533
7.23228,44424
7.23805,49561
7.24383,55721
7.2496,59979
7.25538,66694
7.26115,73796
7.26693,77440
7.2727,85752
7.27848,96025
7.28425,103985
7.29003,112511
7.2958,131962
7.30158,140213
7.30735,168279
7.31313,247392
7.3189,961918
7.32468,1102786
7.33045,302368
7.33623,114165
7.342,74304
7.34778,56762
7.35355,46128
7.35933,39617
7.36512,34863
7.37088,30264
7.37667,28860
7.38243,25628
7.38822,26234
7.39398,24599
7.39977,21877
7.40553,20627
7.41132,18409
7.41708,17772
7.42287,15860
7.42863,15030
7.43442,13657
7.44018,13190
7.44597,12518
7.45173,11512
7.45752,11142
7.46328,10831
7.46907,10074
7.47483,9369
7.48062,9779
7.4864,8830
7.49217,8428
7.49795,8913
7.50372,8940
7.5095,8684
7.51527,7848
7.52105,8651
7.52682,7612
7.5326,7413
7.53837,6980
7.54415,6613
7.54992,7170
7.5557,6803
7.56147,7172
7.56725,6661
7.57302,6798
7.5788,5614
7.58457,6291
7.59035,6137
7.59612,6558
7.6019,5652
7.60767,6027
7.61345,6289
7.61923,5241
7.625,5409
7.63078,5349
7.63655,6176
7.64233,5560
7.6481,5466
7.65388,5965
7.65965,6106
7.66543,5750
7.6712,5537
7.67698,6661
7.68275,6475
7.68853,5949
7.6943,6499
7.70008,5537
7.70585,4945
7.71163,6144
7.7174,6465
7.72318,5278
7.72895,4992
7.73473,5053
7.74052,4793
7.74628,5237
7.75207,5788
7.75783,6176
7.76362,5410
7.76938,5900
7.77517,4900
7.78093,5887
7.78672,6478
7.79248,8373
7.79827,8919
7.80403,7037
7.80982,6358
7.81558,5707
7.82137,5923
7.82713,4772
7.83292,4736
7.83868,5160
7.84447,4522
7.85023,5009
7.85602,5219
7.86178,4961
7.86757,4925
7.87335,4584
7.87912,3930
7.8849,4688
7.89067,4823
7.89645,4945
7.90222,4574
7.908,4441
7.91377,4372
7.91955,4380
7.92532,4178
7.9311,3964
7.93687,4004
7.94265,3288
7.94842,3767
7.9542,3725
7.95997,4066
7.96575,4023
7.97152,3476
7.9773,3373
7.98307,3372
7.98885,2970
7.99463,4013
8.0004,4258
8.00618,3400
8.01195,3955
8.01773,3531
8.0235,3889
8.02928,3734
8.03505,3364
8.04083,4201
8.0466,3705
8.05238,3597
8.05815,3868
8.06393,3682
8.0697,4030
8.07548,3910
8.08125,3062
8.08703,3492
8.0928,3763
8.09858,4054
8.10435,3471
8.11013,3166
8.1159,4175
8.12168,3455
8.12747,3365
8.13323,3024
8.13902,3661
8.14478,3210
8.15057,3425
8.15633,3281
8.16212,3824
8.16788,3647
8.17367,2841
8.17943,3525
8.18522,3051
8.19098,2856
8.19677,3177
8.20253,2991
8.20832,3052
8.21408,2982
8.21987,2969
8.22563,2882
8.23142,3458
8.23718,2771
8.24297,2610
8.24873,2957
8.25452,3099
8.2603,3173
8.26607,3021
8.27185,2458
8.27762,2998
8.2834,2906
8.28917,3214
8.29495,2422
8.30072,2858
8.3065,2800
8.31227,2889
8.31805,2366
8.32382,2669
8.3296,2669
8.33537,2044
8.34115,2826
8.34692,2170
8.3527,2419
8.35847,2592
8.36425,2139
8.37002,2200
8.3758,2041
8.38158,2455
8.38735,2433
8.39313,2124
8.3989,2306
8.40468,2278
8.41045,2779
8.41623,1789
8.422,2266
8.42778,2176
8.43355,2088
8.43933,2020
8.4451,2320
8.45088,1968
8.45665,2413
8.46243,1718
8.4682,2007
8.47398,1656
8.47975,1924
8.48553,1795
8.4913,1832
8.49708,1939
8.50285,2009
8.50863,1601
8.51442,2108
8.52018,2581
8.52597,1317
8.53173,2180
8.53752,2111
8.54328,1921
8.54907,1707
8.55483,1579
8.56062,1875
8.56638,1652
8.57217,2044
8.57793,1243
8.58372,1666
8.58948,1306
8.59527,1348
8.60103,1521
8.60682,1568
8.61258,1189
8.61837,1538
8.62413,1185
8.62992,1733
8.63568,1974
8.64147,1405
8.64725,1343
8.65302,1262
8.6588,1094
8.66457,1726
8.67035,1019
8.67612,1079
8.6819,1273
8.68767,1142
8.69345,1607
8.69922,841
8.705,1080
8.71077,1361
8.71655,1484
8.72232,1466
8.7281,824
8.73387,1351
8.73965,1265
8.74542,1407
8.7512,1273
8.75697,1127
8.76275,1067
8.76853,1192
8.7743,1100
8.78008,1211
8.78585,1112
8.79163,1107
8.7974,862
8.80318,635
8.80895,862
8.81473,844
8.8205,1010
8.82628,1142
8.83205,1300
8.83783,913
8.8436,1666
8.84938,1030
8.85515,1073
8.86093,943
8.8667,929
8.87248,1143
8.87825,991
8.88403,1031
8.8898,902
8.89558,1058
8.90137,918
8.90713,920
8.91292,1032
8.91868,717
8.92447,962
8.93023,831
8.93602,1055
8.94178,1045
8.94757,992
8.95333,750
8.95912,1009
8.96488,445
8.97067,825
8.97643,1058
8.98222,920
8.98798,911
8.99377,903
8.99953,830
9.00532,706
9.01108,468
9.01687,599
9.02265,985
9.02842,870
9.0342,607
9.03997,1104
9.04575,1048
9.05152,687
9.0573,1190
9.06307,842
9.06885,958
9.07462,814
9.0804,819
9.08617,944
9.09195,1148
9.09772,863
9.1035,633
9.10927,884
9.11505,588
9.12082,766
9.1266,830
9.13237,826
9.13815,895
9.14392,1077
9.1497,666
9.15548,476
9.16125,902
9.16703,1133
9.1728,724
9.17858,667
9.18435,822
9.19013,737
9.1959,461
9.20168,947
9.20745,836
9.21323,705
9.219,909
9.22478,1020
9.23055,688
9.23633,609
9.2421,874
9.24788,712
9.25365,887
9.25943,834
9.2652,496
9.27098,857
9.27677,678
9.28253,568
9.28832,482
9.29408,1163
9.29987,879
9.30563,806
9.31142,802
9.31718,689
9.32297,428
9.32873,431
9.33452,857
9.34028,1242
9.34607,1051
9.35183,706
9.35762,915
9.36338,751
9.36917,751
9.37493,680
9.38072,641
9.38648,692
9.39227,872
9.39803,845
9.40382,799
9.4096,870
9.41537,903
9.42115,819
9.42692,981
9.4327,887
9.43847,684
9.44425,644
9.45002,712
9.4558,749
9.46157,683
9.46735,695
9.47312,838
9.4789,473
9.48467,889
9.49045,653
9.49622,605
9.502,328
9.50777,835
9.51355,624
9.51932,941
9.5251,1017
9.53087,739
9.53665,733
9.54243,508
9.5482,985
9.55398,1008
9.55975,853
9.56553,282
9.5713,1166
9.57708,841
9.58285,661
9.58863,1010
9.5944,717
9.60018,760
9.60595,703
9.61173,664
9.6175,966
9.62328,651
9.62905,1033
9.63483,504
9.6406,752
9.64638,1076
9.65215,1040
9.65793,1050
9.66372,546
9.66948,1119
9.67527,719
9.68103,772
9.68682,769
9.69258,968
9.69837,640
9.70413,852
9.70992,1067
9.71568,1136
9.72147,1252
9.72723,880
9.73302,1178
9.73878,781
9.74457,975
9.75033,1027
9.75612,920
9.76188,900
9.76767,907
9.77343,1001
9.77922,929
9.78498,1246
9.79077,1325
9.79655,1469
9.80232,1317
9.8081,1001
9.81387,1082
9.81965,864
9.82542,1313
9.8312,955
9.83697,845
9.84275,887
9.84852,1113
9.8543,1028
9.86007,979
9.86585,1433
9.87162,1176
9.8774,995
9.88317,1551
9.88895,1103
9.89472,1517
9.9005,918
9.90627,945
9.91205,914
9.91783,1148
9.9236,1132
9.92938,1609
9.93515,934
9.94093,1213
9.9467,911
9.95248,993
9.95825,1519
9.96403,1479
9.9698,1157
9.97558,1206
9.98135,1665
9.98713,1223
9.9929,1004
9.99868,1192
10.0045,1359
10.0102,961
10.016,1448
10.0218,1346
10.0276,1285
10.0333,1673
10.0391,825
10.0449,1139
10.0507,1530
10.0564,1358
10.0622,1282
10.068,1308
10.0738,1750
10.0795,1413
10.0853,1713
10.0911,1958
10.0969,1832
10.1026,1731
10.1084,1470
10.1142,1622
10.12,2272
10.1257,1191
10.1315,1500
10.1373,1837
10.1431,29520
10.1488,201319
10.1546,274606
10.1604,111924
10.1662,43414
10.1719,23317
10.1777,15746
10.1835,11512
10.1893,9116
10.1951,6919
10.2008,4572
10.2066,5112
10.2124,4386
10.2182,3924
10.2239,4663
10.2297,3184
10.2355,2457
10.2413,2691
10.247,2996
10.2528,3244
10.2586,2721
10.2644,2810
10.2701,17260
10.2759,433529
10.2817,3284702
10.2875,9105788
10.2932,8389486
10.299,1170275
10.3048,378770
10.3106,223571
10.3163,158853
10.3221,118032
10.3279,93202
10.3337,78034
10.3394,64489
10.3452,54276
10.351,43593
10.3568,39759
10.3625,35486
10.3683,31725
10.3741,28252
10.3799,24966
10.3856,22854
10.3914,20371
10.3972,18733
10.403,16470
10.4087,16199
10.4145,14178
10.4203,13856
10.4261,12754
10.4318,12585
10.4376,10457
10.4434,11027
10.4492,10329
10.4549,9023
10.4607,9931
10.4665,9234
10.4723,7991
10.478,7883
10.4838,7212
10.4896,8222
10.4954,6937
10.5011,6271
10.5069,6177
10.5127,7209
10.5185,6658
10.5242,6966
10.53,5980
10.5358,5790
10.5416,5730
10.5473,5880
10.5531,5373
10.5589,6352
10.5647,6310
10.5705,5940
10.5762,6748
10.582,5539
10.5878,5749
10.5936,5385
10.5993,5810
10.6051,5803
10.6109,6959
10.6167,5068
10.6224,5639
10.6282,5297
10.634,5732
10.6398,6113
10.6455,5933
10.6513,5625
10.6571,5157
10.6629,4606
10.6686,6187
10.6744,5754
10.6802,5606
10.686,6479
10.6917,6576
10.6975,5972
10.7033,5722
10.7091,5896
10.7148,6196
10.7206,5477
10.7264,6623
10.7322,5319
10.7379,6090
10.7437,5853
10.7495,5941
10.7553,6472
10.761,5760
10.7668,5973
10.7726,6152
10.7784,6569
10.7841,5926
10.7899,6454
10.7957,5827
10.8015,7172
10.8072,6209
10.813,6103
10.8188,6279
10.8246,7050
10.8303,6125
10.8361,6434
10.8419,6390
10.8477,6315
10.8534,6840
10.8592,7283
10.865,6761
10.8708,7950
10.8765,6969
10.8823,6832
10.8881,7111
10.8939,7238
10.8996,6786
10.9054,6968
10.9112,6893
10.917,7396
10.9227,7514
10.9285,7680
10.9343,6973
10.9401,7085
10.9459,8531
10.9516,8014
10.9574,7919
10.9632,7911
10.969,8462
10.9747,7974
10.9805,7886
10.9863,8383
10.9921,8249
10.9978,8796
11.0036,8836
11.0094,7926
11.0152,8078
11.0209,9467
11.0267,8791
11.0325,8822
11.0383,8704
11.044,8310
11.0498,9436
11.0556,9391
11.0614,8917
11.0671,10971
11.0729,9701
11.0787,9583
11.0845,10853
11.0902,9652
11.096,10563
11.1018,10922
11.1076,9868
11.1133,9900
11.1191,10856
11.1249,10107
11.1307,10975
11.1364,10457
11.1422,10483
11.148,11837
11.1538,11294
11.1595,10687
11.1653,11110
11.1711,11726
11.1769,11778
11.1826,10944
11.1884,11939
11.1942,11411
11.2,11235
11.2057,12555
11.2115,12431
11.2173,12426
11.2231,12001
11.2288,12363
11.2346,12579
11.2404,12185
11.2462,12396
11.2519,13410
11.2577,12817
11.2635,12866
11.2693,13532
11.275,13179
11.2808,13462
11.2866,14092
11.2924,15209
11.2981,13870
11.3039,13855
11.3097,15563
11.3155,14459
11.3212,15082
11.327,15134
11.3328,14734
11.3386,15748
11.3444,15454
11.3501,16448
11.3559,16033
11.3617,15017
11.3675,16851
11.3732,16198
11.379,14955
11.3848,16532
11.3906,16827
11.3963,18091
11.4021,17580
11.4079,17383
11.4137,16881
11.4194,18388
11.4252,18005
11.431,18553
11.4368,18369
11.4425,18289
11.4483,19979
11.4541,18467
11.4599,19824
11.4656,19484
11.4714,19270
11.4772,20064
11.483,20156
11.4887,21149
11.4945,22095
11.5003,19781
11.5061,21345
11.5118,19672
11.5176,21212
11.5234,22450
11.5292,22442
11.5349,23094
11.5407,23473
11.5465,22796
11.5523,24058
11.558,23870
11.5638,24504
11.5696,24833
11.5754,24257
11.5811,21435
11.5869,26071
11.5927,26543
11.5985,25072
11.6042,24879
11.61,25735
11.6158,26840
11.6216,27444
11.6273,25663
11.6331,27193
11.6389,28448
11.6447,28497
11.6504,26880
11.6562,29188
11.662,29016
11.6678,28658
11.6735,30140
11.6793,29495
11.6851,29956
11.6909,29706
11.6966,31255
11.7024,31193
11.7082,33715
11.714,31568
11.7198,31870
11.7255,31490
11.7313,32805
11.7371,31980
11.7429,34445
11.7486,32588
11.7544,34628
11.7602,33111
11.766,36148
11.7717,34328
11.7775,34619
11.7833,36102
11.7891,36656
11.7948,36407
11.8006,36411
11.8064,37182
11.8122,37882
11.8179,38387
11.8237,38277
11.8295,38502
11.8353,38150
11.841,40951
11.8468,37921
11.8526,40095
11.8584,37940
11.8641,40489
11.8699,41252
11.8757,40918
11.8815,39623
11.8872,41488
11.893,41757
11.8988,43526
11.9046,41346
11.9103,45155
11.9161,42695
11.9219,42691
11.9277,43790
11.9334,44200
11.9392,44286
11.945,44350
11.9508,46617
11.9565,45712
11.9623,46516
11.9681,44599
11.9739,45153
11.9796,46408
11.9854,45157
11.9912,47860
11.997,48587
12.0027,45889
12.0085,49133
12.0143,47541
12.0201,50680
12.0258,49757
12.0316,49562
12.0374,50463
12.0432,49200
12.0489,50313
12.0547,50957
12.0605,50420
12.0663,51434
12.072,53221
12.0778,51572
12.0836,52880
12.0894,53983
12.0952,51817
12.1009,52918
12.1067,50543
12.1125,52849
12.1183,53058
12.124,53435
12.1298,52822
12.1356,57136
12.1414,54526
12.1471,54795
12.1529,54413
12.1587,54848
12.1645,53671
12.1702,55083
12.176,57449
12.1818,56765
12.1876,58454
12.1933,58098
12.1991,57205
12.2049,57738
12.2107,57758
12.2164,57888
12.2222,56786
12.228,59302
12.2338,57390
12.2395,58753
12.2453,57877
12.2511,60577
12.2569,60217
12.2626,58574
12.2684,57569
12.2742,58156
12.28,58171
12.2857,59263
12.2915,60098
12.2973,58476
12.3031,59586
12.3088,60600
12.3146,62156
12.3204,61271
12.3262,60787
12.3319,60156
12.3377,60696
12.3435,61541
12.3493,61902
12.355,62541
12.3608,63618
12.3666,60434
12.3724,60852
12.3781,61999
12.3839,62473
12.3897,62050
12.3955,61154
12.4012,62102
12.407,63485
12.4128,62150
12.4186,63141
12.4243,64506
12.4301,63652
12.4359,63515
12.4417,64079
12.4474,63532
12.4532,63172
12.459,64134
12.4648,63009
12.4705,60711
12.4763,65542
12.4821,63373
12.4879,63381
12.4937,62800
12.4994,64692
12.5052,62621
12.511,61936
12.5168,62168
12.5225,63728
12.5283,63777
12.5341,63227
12.5399,62926
12.5456,63683
12.5514,65309
12.5572,62420
12.563,65408
12.5687,63988
12.5745,64258
12.5803,66666
12.5861,66827
12.5918,65507
12.5976,65272
12.6034,63074
12.6092,64776
12.6149,65507
12.6207,64097
12.6265,64869
12.6323,64184
12.638,64099
12.6438,65502
12.6496,66498
12.6554,64734
12.6611,63018
12.6669,66759
12.6727,65784
12.6785,63060
12.6842,64961
12.69,64185
12.6958,65441
12.7016,64917
12.7073,63691
