D:\MassHunter\GCMS\1\data\Elizabeth\B06\24.06.06\RAU-R505-13.D 06 Jun 24  07:16 pm
Start of data points
1.09302 	 28308466
1.09878 	 27783370
1.10457 	 26673268
1.11033 	 25971056
1.11612 	 25484862
1.12188 	 24839436
1.12767 	 24320958
1.13343 	 23697418
1.13922 	 23365232
1.14498 	 22944784
1.15077 	 22622836
1.15653 	 27864092
1.16232 	 676609
1.16808 	 520999
1.17387 	 456987
1.17963 	 428200
1.18542 	 487058
1.19118 	 658671
1.19697 	 965678
1.20273 	 1320674
1.20852 	 1884938
1.21428 	 1633338
1.22007 	 322247
1.22585 	 202743
1.23162 	 187977
1.2374 	 172898
1.24317 	 167384
1.24895 	 249057
1.25472 	 607429
1.2605 	 1224088
1.26627 	 952540
1.27205 	 202652
1.27782 	 118365
1.2836 	 108882
1.28937 	 102005
1.29515 	 96214
1.30092 	 92336
1.3067 	 87019
1.31247 	 82715
1.31825 	 78521
1.32402 	 96899
1.3298 	 227548
1.33557 	 430137
1.34135 	 209535
1.34713 	 75171
1.3529 	 61625
1.35868 	 56674
1.36445 	 53670
1.37023 	 51735
1.376 	 49112
1.38178 	 46995
1.38755 	 45757
1.39333 	 42558
1.3991 	 41989
1.40488 	 39849
1.41065 	 37251
1.41643 	 36267
1.4222 	 34405
1.42798 	 33753
1.43375 	 32648
1.43953 	 38692
1.4453 	 172994
1.45108 	 252664
1.45685 	 154431
1.46263 	 96708
1.4684 	 42780
1.47418 	 29311
1.47997 	 25092
1.48573 	 71415
1.49152 	 500608
1.49728 	 1155046
1.50307 	 734007
1.50883 	 199466
1.51462 	 56596
1.52038 	 29074
1.52617 	 23536
1.53193 	 30409
1.53772 	 30889
1.54348 	 22297
1.54927 	 18443
1.55503 	 17390
1.56082 	 16511
1.56658 	 15836
1.57237 	 15863
1.57813 	 15385
1.58392 	 14297
1.58968 	 14399
1.59547 	 14401
1.60123 	 13490
1.60702 	 13116
1.6128 	 12954
1.61857 	 12561
1.62435 	 13241
1.63012 	 12935
1.6359 	 12602
1.64167 	 11829
1.64745 	 11753
1.65322 	 11554
1.659 	 11213
1.66477 	 10799
1.67055 	 11888
1.67632 	 17131
1.6821 	 23644
1.68787 	 18960
1.69365 	 12376
1.69942 	 9696
1.7052 	 8896
1.71097 	 9339
1.71675 	 8623
1.72252 	 8768
1.7283 	 9602
1.73408 	 59156
1.73985 	 966717
1.74563 	 3049990
1.7514 	 2879209
1.75718 	 1240230
1.76295 	 402614
1.76873 	 128143
1.7745 	 39425
1.78028 	 21000
1.78605 	 39191
1.79183 	 64482
1.7976 	 51203
1.80338 	 40008
1.80915 	 44663
1.81493 	 36300
1.8207 	 19173
1.82648 	 11587
1.83225 	 8413
1.83803 	 7556
1.8438 	 10592
1.84958 	 28788
1.85535 	 55140
1.86113 	 51788
1.86692 	 32860
1.87268 	 37542
1.87847 	 45858
1.88423 	 32706
1.89002 	 18812
1.89578 	 9543
1.90157 	 7067
1.90733 	 5563
1.91312 	 5957
1.91888 	 5635
1.92467 	 6059
1.93043 	 5906
1.93622 	 5800
1.94198 	 5567
1.94777 	 6154
1.95353 	 14282
1.95932 	 29045
1.96508 	 35011
1.97087 	 22835
1.97663 	 11639
1.98242 	 8749
1.9882 	 13292
1.99397 	 22064
1.99975 	 21056
2.00552 	 13217
2.0113 	 8778
2.01707 	 14613
2.02285 	 27830
2.02862 	 29423
2.0344 	 19320
2.04017 	 11056
2.04595 	 6735
2.05172 	 4900
2.0575 	 4609
2.06327 	 4923
2.06905 	 4896
2.07482 	 4312
2.0806 	 4441
2.08637 	 3727
2.09215 	 4263
2.09792 	 4725
2.1037 	 3877
2.10947 	 4337
2.11525 	 3963
2.12103 	 4246
2.1268 	 4270
2.13258 	 3758
2.13835 	 4470
2.14413 	 4133
2.1499 	 3813
2.15568 	 4206
2.16145 	 3916
2.16723 	 4227
2.173 	 3773
2.17878 	 3838
2.18455 	 3417
2.19033 	 4235
2.1961 	 3489
2.20188 	 3612
2.20765 	 3417
2.21343 	 3852
2.2192 	 3728
2.22498 	 3740
2.23075 	 3603
2.23653 	 3513
2.24232 	 3393
2.24808 	 3945
2.25387 	 4017
2.25963 	 3247
2.26542 	 3640
2.27118 	 3574
2.27697 	 3889
2.28273 	 3110
2.28852 	 3420
2.29428 	 3599
2.30007 	 3213
2.30583 	 3161
2.31162 	 3542
2.31738 	 3420
2.32317 	 3873
2.32893 	 3084
2.33472 	 3516
2.34048 	 3225
2.34627 	 2945
2.35203 	 3277
2.35782 	 3209
2.36358 	 2902
2.36937 	 3047
2.37515 	 2678
2.38092 	 3322
2.3867 	 3140
2.39247 	 3316
2.39825 	 3143
2.40402 	 3205
2.4098 	 2819
2.41557 	 2947
2.42135 	 2599
2.42712 	 2933
2.4329 	 2665
2.43867 	 2679
2.44445 	 2791
2.45022 	 2766
2.456 	 3400
2.46177 	 2755
2.46755 	 2706
2.47332 	 2894
2.4791 	 3139
2.48487 	 2863
2.49065 	 2488
2.49642 	 2774
2.5022 	 2790
2.50798 	 2692
2.51375 	 2411
2.51953 	 3193
2.5253 	 2426
2.53108 	 2839
2.53685 	 2310
2.54263 	 2549
2.5484 	 2526
2.55418 	 2382
2.55995 	 2997
2.56573 	 2606
2.5715 	 2979
2.57728 	 2422
2.58305 	 2701
2.58883 	 2551
2.5946 	 2576
2.60038 	 2452
2.60615 	 2451
2.61193 	 2409
2.6177 	 2362
2.62348 	 2750
2.62927 	 2359
2.63503 	 2327
2.64082 	 2377
2.64658 	 2281
2.65237 	 2165
2.65813 	 2083
2.66392 	 2555
2.66968 	 2210
2.67547 	 2292
2.68123 	 2549
2.68702 	 1991
2.69278 	 1951
2.69857 	 2034
2.70433 	 2344
2.71012 	 2280
2.71588 	 2215
2.72167 	 2515
2.72743 	 1986
2.73322 	 2281
2.73898 	 2291
2.74477 	 2430
2.75053 	 2215
2.75632 	 2228
2.7621 	 1917
2.76787 	 2036
2.77365 	 2182
2.77942 	 2328
2.7852 	 2083
2.79097 	 2114
2.79675 	 2282
2.80252 	 1955
2.8083 	 2148
2.81407 	 2172
2.81985 	 2410
2.82562 	 2009
2.8314 	 2327
2.83717 	 2078
2.84295 	 2241
2.84872 	 2190
2.8545 	 2081
2.86027 	 1959
2.86605 	 2080
2.87182 	 2021
2.8776 	 2295
2.88338 	 1822
2.88915 	 1998
2.89493 	 1832
2.9007 	 2059
2.90648 	 1866
2.91225 	 1741
2.91803 	 1812
2.9238 	 2144
2.92958 	 2152
2.93535 	 2120
2.94113 	 2076
2.9469 	 1915
2.95268 	 1939
2.95845 	 1916
2.96423 	 1716
2.97 	 1977
2.97578 	 1850
2.98155 	 1919
2.98733 	 1983
2.9931 	 1774
2.99888 	 1785
3.00465 	 1920
3.01043 	 2307
3.01622 	 2078
3.02198 	 2080
3.02777 	 2078
3.03353 	 1739
3.03932 	 1823
3.04508 	 1643
3.05087 	 2162
3.05663 	 1871
3.06242 	 1903
3.06818 	 1929
3.07397 	 1712
3.07973 	 1643
3.08552 	 1528
3.09128 	 1079
3.09707 	 1635
3.10283 	 1935
3.10862 	 1735
3.11438 	 1748
3.12017 	 1394
3.12593 	 1710
3.13172 	 1340
3.13748 	 1720
3.14327 	 1870
3.14905 	 1670
3.15482 	 1892
3.1606 	 1694
3.16637 	 1344
3.17215 	 2043
3.17792 	 1594
3.1837 	 1650
3.18947 	 1583
3.19525 	 1785
3.20102 	 1699
3.2068 	 1523
3.21257 	 1529
3.21835 	 1747
3.22412 	 1607
3.2299 	 1605
3.23567 	 1571
3.24145 	 1367
3.24722 	 1758
3.253 	 1624
3.25877 	 1418
3.26455 	 1697
3.27033 	 1713
3.2761 	 1671
3.28188 	 1299
3.28765 	 1436
3.29343 	 1571
3.2992 	 1510
3.30498 	 1452
3.31075 	 1707
3.31653 	 1710
3.3223 	 1787
3.32808 	 1770
3.33385 	 1325
3.33963 	 1543
3.3454 	 1594
3.35118 	 1678
3.35695 	 1524
3.36273 	 1464
3.3685 	 1327
3.37428 	 1426
3.38005 	 1255
3.38583 	 1516
3.3916 	 1356
3.39738 	 1406
3.40317 	 1576
3.40893 	 1794
3.41472 	 1523
3.42048 	 1347
3.42627 	 1584
3.43203 	 1388
3.43782 	 1668
3.44358 	 1641
3.44937 	 1170
3.45513 	 1429
3.46092 	 1489
3.46668 	 1164
3.47247 	 1390
3.47823 	 1274
3.48402 	 1438
3.48978 	 1423
3.49557 	 1382
3.50133 	 1415
3.50712 	 1424
3.51288 	 1220
3.51867 	 1342
3.52443 	 1349
3.53022 	 1515
3.536 	 1661
3.54177 	 1349
3.54755 	 1361
3.55332 	 1469
3.5591 	 1282
3.56487 	 1315
3.57065 	 1237
3.57642 	 1213
3.5822 	 1235
3.58797 	 1468
3.59375 	 1310
3.59952 	 1421
3.6053 	 1489
3.61107 	 1501
3.61685 	 1376
3.62262 	 990
3.6284 	 1255
3.63417 	 1153
3.63995 	 1008
3.64572 	 753
3.6515 	 1147
3.65728 	 1407
3.66305 	 1312
3.66883 	 1124
3.6746 	 1410
3.68038 	 1075
3.68615 	 1160
3.69193 	 948
3.6977 	 1292
3.70348 	 1092
3.70925 	 1550
3.71503 	 1487
3.7208 	 1199
3.72658 	 1129
3.73235 	 1032
3.73813 	 1106
3.7439 	 1390
3.74968 	 1529
3.75545 	 1144
3.76123 	 1298
3.767 	 1057
3.77278 	 1499
3.77855 	 1306
3.78433 	 1150
3.79012 	 934
3.79588 	 940
3.80167 	 1229
3.80743 	 1570
3.81322 	 640
3.81898 	 1130
3.82477 	 1015
3.83053 	 1045
3.83632 	 1298
3.84208 	 1100
3.84787 	 1373
3.85363 	 975
3.85942 	 1285
3.86518 	 1548
3.87097 	 996
3.87673 	 1227
3.88252 	 739
3.88828 	 1195
3.89407 	 1308
3.89983 	 917
3.90562 	 1045
3.9114 	 1009
3.91717 	 1116
3.92295 	 1116
3.92872 	 999
3.9345 	 1074
3.94027 	 1129
3.94605 	 920
3.95182 	 1369
3.9576 	 945
3.96337 	 934
3.96915 	 1073
3.97492 	 785
3.9807 	 786
3.98647 	 963
3.99225 	 1044
3.99802 	 816
4.0038 	 1322
4.00957 	 1315
4.01535 	 818
4.02112 	 864
4.0269 	 1395
4.03267 	 948
4.03845 	 938
4.04423 	 999
4.05 	 785
4.05578 	 677
4.06155 	 896
4.06733 	 1054
4.0731 	 861
4.07888 	 953
4.08465 	 1249
4.09043 	 16054
4.0962 	 19887
4.10198 	 19762
4.10775 	 17276
4.11353 	 16716
4.1193 	 14215
4.12508 	 14163
4.13085 	 13637
4.13663 	 13347
4.1424 	 11784
4.14818 	 11335
4.15395 	 10592
4.15973 	 9999
4.16552 	 9239
4.17128 	 8556
4.17707 	 7953
4.18283 	 7544
4.18862 	 7873
4.19438 	 7358
4.20017 	 6384
4.20593 	 6765
4.21172 	 6353
4.21748 	 5505
4.22327 	 5544
4.22903 	 5887
4.23482 	 5543
4.24058 	 5169
4.24637 	 4722
4.25213 	 4673
4.25792 	 4647
4.26368 	 4247
4.26947 	 3935
4.27523 	 4794
4.28102 	 4157
4.28678 	 3732
4.29257 	 4062
4.29835 	 3418
4.30412 	 3410
4.3099 	 3686
4.31567 	 3547
4.32145 	 3870
4.32722 	 3054
4.333 	 3111
4.33877 	 3404
4.34455 	 3300
4.35032 	 3122
4.3561 	 2946
4.36187 	 3246
4.36765 	 3180
4.37342 	 2795
4.3792 	 3190
4.38497 	 2666
4.39075 	 3126
4.39652 	 2991
4.4023 	 2778
4.40807 	 2991
4.41385 	 2595
4.41962 	 2578
4.4254 	 2425
4.43118 	 2138
4.43695 	 2566
4.44273 	 2509
4.4485 	 1735
4.45428 	 2212
4.46005 	 2107
4.46583 	 2050
4.4716 	 2420
4.47738 	 1961
4.48315 	 1826
4.48893 	 2301
4.4947 	 2327
4.50048 	 2273
4.50625 	 2074
4.51203 	 2388
4.5178 	 2244
4.52358 	 2073
4.52935 	 2120
4.53513 	 2062
4.5409 	 2259
4.54668 	 1876
4.55247 	 1706
4.55823 	 1846
4.56402 	 2094
4.56978 	 2276
4.57557 	 2014
4.58133 	 2109
4.58712 	 2267
4.59288 	 1975
4.59867 	 1985
4.60443 	 2311
4.61022 	 2208
4.61598 	 1556
4.62177 	 1754
4.62753 	 2238
4.63332 	 2065
4.63908 	 2203
4.64487 	 2327
4.65063 	 1468
4.65642 	 2072
4.66218 	 1993
4.66797 	 2070
4.67373 	 2023
4.67952 	 1977
4.6853 	 2137
4.69107 	 1919
4.69685 	 1869
4.70262 	 1930
4.7084 	 1665
4.71417 	 2211
4.71995 	 2034
4.72572 	 2038
4.7315 	 1866
4.73727 	 2173
4.74305 	 1723
4.74882 	 2099
4.7546 	 1617
4.76037 	 2044
4.76615 	 1940
4.77192 	 1872
4.7777 	 1739
4.78347 	 1971
4.78925 	 1673
4.79502 	 2059
4.8008 	 1707
4.80658 	 1799
4.81235 	 1686
4.81813 	 1594
4.8239 	 2281
4.82968 	 1775
4.83545 	 2183
4.84123 	 1874
4.847 	 1700
4.85278 	 1509
4.85855 	 1705
4.86433 	 1618
4.8701 	 1497
4.87588 	 1853
4.88165 	 1734
4.88743 	 1516
4.8932 	 1558
4.89898 	 1609
4.90475 	 1529
4.91053 	 1728
4.9163 	 1703
4.92208 	 1478
4.92785 	 1886
4.93363 	 1735
4.93942 	 1695
4.94518 	 1603
4.95097 	 1796
4.95673 	 1136
4.96252 	 1510
4.96828 	 1239
4.97407 	 1545
4.97983 	 1343
4.98562 	 1405
4.99138 	 1296
4.99717 	 1368
5.00293 	 1694
5.00872 	 1479
5.01448 	 1651
5.02027 	 1582
5.02603 	 1429
5.03182 	 1497
5.03758 	 1926
5.04337 	 1507
5.04913 	 1549
5.05492 	 1471
5.0607 	 1593
5.06647 	 1610
5.07225 	 1266
5.07802 	 1389
5.0838 	 1695
5.08957 	 1255
5.09535 	 1883
5.10112 	 1626
5.1069 	 1405
5.11267 	 1445
5.11845 	 1708
5.12422 	 1883
5.13 	 1480
5.13577 	 1603
5.14155 	 1500
5.14732 	 1752
5.1531 	 1832
5.15887 	 1358
5.16465 	 1310
5.17042 	 1697
5.1762 	 1786
5.18197 	 1788
5.18775 	 1392
5.19353 	 1496
5.1993 	 1411
5.20508 	 1453
5.21085 	 1397
5.21663 	 1607
5.2224 	 1191
5.22818 	 1143
5.23395 	 1313
5.23973 	 1558
5.2455 	 1531
5.25128 	 1403
5.25705 	 1578
5.26283 	 1640
5.2686 	 1315
5.27438 	 1471
5.28015 	 1533
5.28593 	 1858
5.2917 	 815
5.29748 	 1378
5.30325 	 1463
5.30903 	 1246
5.3148 	 1463
5.32058 	 1641
5.32637 	 1748
5.33213 	 1503
5.33792 	 1750
5.34368 	 1470
5.34947 	 1415
5.35523 	 1300
5.36102 	 1329
5.36678 	 1538
5.37257 	 1480
5.37833 	 1608
5.38412 	 1854
5.38988 	 1970
5.39567 	 1306
5.40143 	 1189
5.40722 	 1577
5.41298 	 1358
5.41877 	 1548
5.42453 	 1259
5.43032 	 1316
5.43608 	 1618
5.44187 	 1448
5.44765 	 1487
5.45342 	 1299
5.4592 	 1663
5.46497 	 1638
5.47075 	 1681
5.47652 	 1250
5.4823 	 1577
5.48807 	 1406
5.49385 	 1520
5.49962 	 1525
5.5054 	 1538
5.51117 	 1210
5.51695 	 1999
5.52272 	 1842
5.5285 	 1458
5.53427 	 1504
5.54005 	 1463
5.54582 	 1484
5.5516 	 1652
5.55737 	 1515
5.56315 	 1661
5.56892 	 1625
5.5747 	 1303
5.58048 	 1828
5.58625 	 1206
5.59203 	 1462
5.5978 	 1329
5.60358 	 1317
5.60935 	 1789
5.61513 	 1589
5.6209 	 1669
5.62668 	 1302
5.63245 	 1444
5.63823 	 1836
5.644 	 1333
5.64978 	 1885
5.65555 	 2270
5.66133 	 1812
5.6671 	 1985
5.67288 	 1951
5.67865 	 1905
5.68443 	 1885
5.6902 	 1529
5.69598 	 2154
5.70177 	 1972
5.70753 	 2269
5.71332 	 1660
5.71908 	 1854
5.72487 	 1934
5.73063 	 2147
5.73642 	 1779
5.74218 	 1765
5.74797 	 1674
5.75373 	 1912
5.75952 	 1531
5.76528 	 1732
5.77107 	 2089
5.77683 	 1853
5.78262 	 1742
5.78838 	 1678
5.79417 	 1542
5.79993 	 1798
5.80572 	 2073
5.81148 	 1512
5.81727 	 1774
5.82303 	 2242
5.82882 	 1835
5.8346 	 1950
5.84037 	 1858
5.84615 	 1562
5.85192 	 1739
5.8577 	 2025
5.86347 	 2188
5.86925 	 1633
5.87502 	 1704
5.8808 	 1719
5.88657 	 1909
5.89235 	 1713
5.89812 	 1244
5.9039 	 1557
5.90967 	 1529
5.91545 	 1526
5.92122 	 1610
5.927 	 1364
5.93277 	 1563
5.93855 	 1370
5.94432 	 1709
5.9501 	 1476
5.95587 	 1414
5.96165 	 1475
5.96743 	 1898
5.9732 	 1835
5.97898 	 1690
5.98475 	 1284
5.99053 	 1822
5.9963 	 1800
6.00208 	 1646
6.00785 	 2083
6.01363 	 1634
6.0194 	 1609
6.02518 	 1395
6.03095 	 1651
6.03673 	 1760
6.0425 	 1594
6.04828 	 15656
6.05405 	 522620
6.05983 	 579018
6.0656 	 286437
6.07138 	 162997
6.07715 	 101237
6.08293 	 71611
6.08872 	 50931
6.09448 	 41631
6.10027 	 32008
6.10603 	 26602
6.11182 	 23352
6.11758 	 20749
6.12337 	 19074
6.12913 	 14821
6.13492 	 13825
6.14068 	 12170
6.14647 	 11827
6.15223 	 9747
6.15802 	 9304
6.16378 	 8666
6.16957 	 8356
6.17533 	 7092
6.18112 	 6833
6.18688 	 5902
6.19267 	 5824
6.19843 	 6018
6.20422 	 5556
6.20998 	 5265
6.21577 	 5244
6.22155 	 4994
6.22732 	 4781
6.2331 	 4266
6.23887 	 4402
6.24465 	 4344
6.25042 	 4685
6.2562 	 5874
6.26197 	 5534
6.26775 	 4617
6.27352 	 4682
6.2793 	 3171
6.28507 	 3946
6.29085 	 100229
6.29662 	 903562
6.3024 	 1205637
6.30817 	 407074
6.31395 	 71669
6.31972 	 22526
6.3255 	 13508
6.33127 	 9466
6.33705 	 6954
6.34282 	 6543
6.3486 	 5403
6.35438 	 4313
6.36015 	 3577
6.36593 	 4349
6.3717 	 3750
6.37748 	 3405
6.38325 	 3442
6.38903 	 3216
6.3948 	 3525
6.40058 	 3121
6.40635 	 2750
6.41213 	 2764
6.4179 	 2482
6.42368 	 2445
6.42945 	 2454
6.43523 	 2624
6.441 	 2213
6.44678 	 2388
6.45255 	 3009
6.45833 	 2431
6.4641 	 2402
6.46988 	 2454
6.47567 	 3230
6.48143 	 2605
6.48722 	 3226
6.49298 	 5968
6.49877 	 8178
6.50453 	 5639
6.51032 	 3758
6.51608 	 4108
6.52187 	 3812
6.52763 	 4103
6.53342 	 3065
6.53918 	 3130
6.54497 	 1925
6.55073 	 2030
6.55652 	 2010
6.56228 	 2033
6.56807 	 1999
6.57383 	 1520
6.57962 	 2173
6.58538 	 2264
6.59117 	 1932
6.59693 	 2186
6.60272 	 2055
6.6085 	 1989
6.61427 	 1926
6.62005 	 1594
6.62582 	 1823
6.6316 	 1571
6.63737 	 1922
6.64315 	 1521
6.64892 	 1702
6.6547 	 2217
6.66047 	 1620
6.66625 	 1574
6.67202 	 1495
6.6778 	 1589
6.68357 	 2383
6.68935 	 1236
6.69512 	 1659
6.7009 	 1562
6.70667 	 1577
6.71245 	 1434
6.71822 	 1362
6.724 	 1574
6.72978 	 1197
6.73555 	 2464
6.74133 	 1354
6.7471 	 1863
6.75288 	 1656
6.75865 	 1293
6.76443 	 1646
6.7702 	 1373
6.77598 	 1648
6.78175 	 1278
6.78753 	 1152
6.7933 	 1214
6.79908 	 1146
6.80485 	 1373
6.81063 	 1219
6.8164 	 1192
6.82218 	 1502
6.82795 	 1597
6.83373 	 1141
6.8395 	 1256
6.84528 	 1339
6.85105 	 1149
6.85683 	 1118
6.86262 	 842
6.86838 	 829
6.87417 	 1121
6.87993 	 1005
6.88572 	 1172
6.89148 	 885
6.89727 	 1124
6.90303 	 912
6.90882 	 931
6.91458 	 1069
6.92037 	 530
6.92613 	 1306
6.93192 	 950
6.93768 	 1083
6.94347 	 760
6.94923 	 995
6.95502 	 1016
6.96078 	 1022
6.96657 	 1603
6.97233 	 906
6.97812 	 982
6.9839 	 1144
6.98967 	 1567
6.99545 	 1249
7.00122 	 1258
7.007 	 736
7.01277 	 1350
7.01855 	 1192
7.02432 	 1266
7.0301 	 1276
7.03587 	 931
7.04165 	 1285
7.04742 	 1514
7.0532 	 827
7.05897 	 790
7.06475 	 1230
7.07052 	 1346
7.0763 	 995
7.08207 	 1139
7.08785 	 1081
7.09362 	 1312
7.0994 	 890
7.10517 	 940
7.11095 	 1106
7.11673 	 1143
7.1225 	 655
7.12828 	 1378
7.13405 	 1457
7.13983 	 1443
7.1456 	 2139
7.15138 	 2211
7.15715 	 3207
7.16293 	 4284
7.1687 	 5750
7.17448 	 7546
7.18025 	 9503
7.18603 	 12538
7.1918 	 13591
7.19758 	 17338
7.20335 	 20232
7.20913 	 25530
7.2149 	 28440
7.22068 	 32807
7.22645 	 40004
7.23223 	 43150
7.238 	 49482
7.24378 	 53631
7.24957 	 58926
7.25533 	 65628
7.26112 	 69997
7.26688 	 79228
7.27267 	 85222
7.27843 	 91271
7.28422 	 100497
7.28998 	 110851
7.29577 	 125767
7.30153 	 144188
7.30732 	 168422
7.31308 	 272966
7.31887 	 963812
7.32463 	 985254
7.33042 	 267019
7.33618 	 113464
7.34197 	 73058
7.34773 	 54469
7.35352 	 45029
7.35928 	 38471
7.36507 	 33416
7.37085 	 31415
7.37662 	 28134
7.3824 	 26229
7.38817 	 25438
7.39395 	 25114
7.39972 	 23177
7.4055 	 21247
7.41127 	 18111
7.41705 	 17713
7.42282 	 14533
7.4286 	 14141
7.43437 	 12959
7.44015 	 13359
7.44592 	 11827
7.4517 	 11886
7.45747 	 10661
7.46325 	 11313
7.46902 	 9873
7.4748 	 9395
7.48057 	 9229
7.48635 	 8191
7.49212 	 8253
7.4979 	 8386
7.50368 	 8737
7.50945 	 8057
7.51523 	 7586
7.521 	 8251
7.52678 	 7317
7.53255 	 6962
7.53833 	 7536
7.5441 	 6652
7.54988 	 7210
7.55565 	 6731
7.56143 	 6648
7.5672 	 6299
7.57298 	 6425
7.57875 	 6653
7.58453 	 6789
7.5903 	 6216
7.59608 	 5904
7.60185 	 5967
7.60763 	 6336
7.6134 	 6472
7.61918 	 5674
7.62497 	 5586
7.63073 	 5634
7.63652 	 6008
7.64228 	 5844
7.64807 	 6614
7.65383 	 5924
7.65962 	 5286
7.66538 	 5637
7.67117 	 5860
7.67693 	 5109
7.68272 	 5414
7.68848 	 4813
7.69427 	 6179
7.70003 	 5744
7.70582 	 5204
7.71158 	 5831
7.71737 	 4571
7.72313 	 5485
7.72892 	 4640
7.73468 	 4845
7.74047 	 4845
7.74623 	 4568
7.75202 	 4725
7.7578 	 5779
7.76357 	 5832
7.76935 	 5139
7.77512 	 5623
7.7809 	 6270
7.78667 	 6313
7.79245 	 8486
7.79822 	 9168
7.804 	 7368
7.80977 	 6422
7.81555 	 5862
7.82132 	 5536
7.8271 	 5442
7.83287 	 5186
7.83865 	 5039
7.84442 	 4679
7.8502 	 5389
7.85597 	 5268
7.86175 	 5319
7.86752 	 4551
7.8733 	 4786
7.87907 	 4286
7.88485 	 5051
7.89063 	 5056
7.8964 	 4188
7.90218 	 3993
7.90795 	 4136
7.91373 	 4419
7.9195 	 4753
7.92528 	 4061
7.93105 	 3858
7.93683 	 4056
7.9426 	 4405
7.94838 	 3853
7.95415 	 3849
7.95993 	 4276
7.9657 	 3617
7.97148 	 4221
7.97725 	 4177
7.98303 	 3863
7.9888 	 3478
7.99458 	 3718
8.00035 	 4106
8.00613 	 3968
8.01192 	 3627
8.01768 	 4053
8.02347 	 3818
8.02923 	 2935
8.03502 	 3476
8.04078 	 3735
8.04657 	 3391
8.05233 	 2967
8.05812 	 3277
8.06388 	 3469
8.06967 	 3386
8.07543 	 3808
8.08122 	 3889
8.08698 	 3514
8.09277 	 3538
8.09853 	 3460
8.10432 	 3501
8.11008 	 3976
8.11587 	 3378
8.12163 	 2996
8.12742 	 3636
8.13318 	 3345
8.13897 	 2971
8.14475 	 3040
8.15052 	 3275
8.1563 	 3529
8.16207 	 3816
8.16785 	 2932
8.17362 	 3272
8.1794 	 3276
8.18517 	 3028
8.19095 	 3646
8.19672 	 2893
8.2025 	 2600
8.20827 	 2933
8.21405 	 3305
8.21982 	 3598
8.2256 	 3387
8.23137 	 2293
8.23715 	 2632
8.24292 	 2956
8.2487 	 2780
8.25447 	 3053
8.26025 	 2467
8.26603 	 2784
8.2718 	 2567
8.27758 	 2781
8.28335 	 2711
8.28913 	 2837
8.2949 	 3042
8.30068 	 3032
8.30645 	 2704
8.31223 	 2384
8.318 	 2725
8.32378 	 2264
8.32955 	 2147
8.33533 	 2662
8.3411 	 2880
8.34688 	 2069
8.35265 	 3040
8.35843 	 2270
8.3642 	 3295
8.36998 	 2764
8.37575 	 1822
8.38153 	 2138
8.3873 	 2214
8.39308 	 2468
8.39887 	 2479
8.40463 	 2298
8.41042 	 1762
8.41618 	 1769
8.42197 	 1802
8.42773 	 1976
8.43352 	 2098
8.43928 	 1920
8.44507 	 1728
8.45083 	 2439
8.45662 	 2355
8.46238 	 2426
8.46817 	 1725
8.47393 	 1911
8.47972 	 1865
8.48548 	 2310
8.49127 	 1889
8.49703 	 2312
8.50282 	 1964
8.50858 	 1577
8.51437 	 2032
8.52015 	 1902
8.52592 	 1514
8.5317 	 2161
8.53747 	 1889
8.54325 	 1682
8.54902 	 2143
8.5548 	 2098
8.56057 	 1838
8.56635 	 1761
8.57212 	 1480
8.5779 	 1688
8.58367 	 1547
8.58945 	 1447
8.59522 	 1989
8.601 	 1533
8.60677 	 1156
8.61255 	 1427
8.61832 	 1658
8.6241 	 1925
8.62987 	 1549
8.63565 	 1500
8.64142 	 1339
8.6472 	 1435
8.65298 	 1175
8.65875 	 1248
8.66453 	 1365
8.6703 	 1394
8.67608 	 1521
8.68185 	 971
8.68763 	 966
8.6934 	 1118
8.69918 	 892
8.70495 	 1303
8.71073 	 1361
8.7165 	 1380
8.72228 	 1456
8.72805 	 1518
8.73383 	 1651
8.7396 	 1370
8.74538 	 841
8.75115 	 988
8.75693 	 956
8.7627 	 1322
8.76848 	 1250
8.77425 	 1078
8.78003 	 1045
8.78582 	 1411
8.79158 	 1061
8.79737 	 1463
8.80313 	 970
8.80892 	 1284
8.81468 	 1369
8.82047 	 1146
8.82623 	 1047
8.83202 	 1215
8.83778 	 1563
8.84357 	 1121
8.84933 	 988
8.85512 	 1342
8.86088 	 1078
8.86667 	 1038
8.87243 	 1485
8.87822 	 1012
8.88398 	 966
8.88977 	 1024
8.89553 	 1210
8.90132 	 847
8.9071 	 810
8.91287 	 949
8.91865 	 1386
8.92442 	 1250
8.9302 	 1223
8.93597 	 923
8.94175 	 1075
8.94752 	 942
8.9533 	 952
8.95907 	 600
8.96485 	 738
8.97062 	 1080
8.9764 	 1100
8.98217 	 907
8.98795 	 893
8.99372 	 1020
8.9995 	 822
9.00527 	 907
9.01105 	 922
9.01682 	 1266
9.0226 	 636
9.02837 	 1110
9.03415 	 1336
9.03993 	 976
9.0457 	 665
9.05148 	 796
9.05725 	 474
9.06303 	 768
9.0688 	 927
9.07458 	 764
9.08035 	 1068
9.08613 	 720
9.0919 	 670
9.09768 	 1017
9.10345 	 732
9.10923 	 1158
9.115 	 670
9.12078 	 693
9.12655 	 1255
9.13233 	 864
9.1381 	 1289
9.14388 	 1068
9.14965 	 852
9.15543 	 874
9.16122 	 521
9.16698 	 1041
9.17277 	 834
9.17853 	 705
9.18432 	 747
9.19008 	 510
9.19587 	 738
9.20163 	 898
9.20742 	 863
9.21318 	 930
9.21897 	 637
9.22473 	 669
9.23052 	 1147
9.23628 	 790
9.24207 	 589
9.24783 	 672
9.25362 	 947
9.25938 	 684
9.26517 	 563
9.27093 	 706
9.27672 	 583
9.28248 	 1157
9.28827 	 632
9.29405 	 833
9.29982 	 785
9.3056 	 1174
9.31137 	 1069
9.31715 	 398
9.32292 	 865
9.3287 	 882
9.33447 	 957
9.34025 	 791
9.34602 	 888
9.3518 	 846
9.35757 	 634
9.36335 	 697
9.36912 	 731
9.3749 	 1067
9.38067 	 731
9.38645 	 954
9.39222 	 781
9.398 	 820
9.40377 	 764
9.40955 	 1080
9.41533 	 847
9.4211 	 1048
9.42688 	 801
9.43265 	 1003
9.43843 	 801
9.4442 	 756
9.44998 	 830
9.45575 	 979
9.46153 	 886
9.4673 	 780
9.47308 	 1165
9.47885 	 869
9.48463 	 865
9.4904 	 780
9.49618 	 952
9.50195 	 733
9.50773 	 873
9.5135 	 754
9.51928 	 666
9.52505 	 756
9.53083 	 785
9.5366 	 766
9.54238 	 677
9.54817 	 719
9.55393 	 788
9.55972 	 1022
9.56548 	 1041
9.57127 	 803
9.57703 	 1112
9.58282 	 881
9.58858 	 1059
9.59437 	 622
9.60013 	 727
9.60592 	 691
9.61168 	 962
9.61747 	 1055
9.62323 	 743
9.62902 	 1142
9.63478 	 872
9.64057 	 993
9.64633 	 955
9.65212 	 1094
9.65788 	 1117
9.66367 	 1158
9.66943 	 1179
9.67522 	 778
9.681 	 1210
9.68677 	 873
9.69255 	 985
9.69832 	 811
9.7041 	 683
9.70987 	 889
9.71565 	 1089
9.72142 	 1117
9.7272 	 688
9.73297 	 948
9.73875 	 891
9.74452 	 1475
9.7503 	 1171
9.75607 	 1182
9.76185 	 1712
9.76762 	 873
9.7734 	 1087
9.77917 	 1153
9.78495 	 1202
9.79072 	 717
9.7965 	 735
9.80227 	 1302
9.80805 	 838
9.81383 	 1081
9.8196 	 1357
9.82538 	 1175
9.83115 	 1359
9.83693 	 1430
9.8427 	 946
9.84848 	 887
9.85425 	 1255
9.86003 	 1115
9.8658 	 987
9.87158 	 1591
9.87735 	 1350
9.88313 	 971
9.8889 	 792
9.89468 	 656
9.90045 	 954
9.90623 	 1266
9.912 	 1438
9.91778 	 1463
9.92355 	 1366
9.92933 	 1635
9.93512 	 1386
9.94088 	 1197
9.94667 	 1696
9.95243 	 1147
9.95822 	 1163
9.96398 	 1269
9.96977 	 1376
9.97553 	 1258
9.98132 	 1086
9.98708 	 1254
9.99287 	 1910
9.99863 	 1333
10.0044 	 1550
10.0102 	 1441
10.016 	 1295
10.0217 	 1512
10.0275 	 1543
10.0333 	 1533
10.0391 	 1059
10.0448 	 1875
10.0506 	 1934
10.0564 	 1423
10.0622 	 1693
10.068 	 1844
10.0737 	 1496
10.0795 	 1452
10.0853 	 1429
10.0911 	 1123
10.0968 	 2133
10.1026 	 1545
10.1084 	 1302
10.1142 	 1356
10.1199 	 2001
10.1257 	 1280
10.1315 	 1744
10.1373 	 1845
10.143 	 9896
10.1488 	 88958
10.1546 	 144407
10.1604 	 68306
10.1661 	 28656
10.1719 	 16883
10.1777 	 10657
10.1835 	 8218
10.1892 	 6189
10.195 	 5282
10.2008 	 4768
10.2066 	 3334
10.2123 	 3393
10.2181 	 3097
10.2239 	 2594
10.2297 	 3084
10.2354 	 2915
10.2412 	 2911
10.247 	 2459
10.2528 	 2247
10.2585 	 2218
10.2643 	 2627
10.2701 	 13820
10.2759 	 393926
10.2816 	 3241293
10.2874 	 6257390
10.2932 	 2115975
10.299 	 525694
10.3047 	 283188
10.3105 	 185203
10.3163 	 136134
10.3221 	 100644
10.3278 	 82198
10.3336 	 68073
10.3394 	 56124
10.3452 	 46673
10.3509 	 41005
10.3567 	 35999
10.3625 	 32268
10.3683 	 27920
10.374 	 24251
10.3798 	 21668
10.3856 	 20798
10.3914 	 16436
10.3971 	 14873
10.4029 	 15403
10.4087 	 14296
10.4145 	 12015
10.4202 	 12362
10.426 	 10086
10.4318 	 10054
10.4376 	 9571
10.4434 	 7339
10.4491 	 8223
10.4549 	 7360
10.4607 	 8575
10.4665 	 8579
10.4722 	 7160
10.478 	 6994
10.4838 	 6840
10.4896 	 6775
10.4953 	 6032
10.5011 	 5997
10.5069 	 6627
10.5127 	 5904
10.5184 	 6654
10.5242 	 6563
10.53 	 5562
10.5358 	 5640
10.5415 	 5938
10.5473 	 5233
10.5531 	 5608
10.5589 	 5017
10.5646 	 5490
10.5704 	 5684
10.5762 	 4889
10.582 	 4704
10.5877 	 4872
10.5935 	 5388
10.5993 	 5421
10.6051 	 4663
10.6108 	 5993
10.6166 	 4861
10.6224 	 5460
10.6282 	 4939
10.6339 	 5180
10.6397 	 5434
10.6455 	 5915
10.6513 	 5174
10.657 	 5358
10.6628 	 5776
10.6686 	 5357
10.6744 	 5653
10.6801 	 5397
10.6859 	 5711
10.6917 	 5781
10.6975 	 5297
10.7032 	 6007
10.709 	 5791
10.7148 	 5291
10.7206 	 5348
10.7263 	 5395
10.7321 	 5511
10.7379 	 5353
10.7437 	 5260
10.7494 	 5948
10.7552 	 5866
10.761 	 5859
10.7668 	 6273
10.7725 	 6008
10.7783 	 5940
10.7841 	 5835
10.7899 	 6123
10.7956 	 5903
10.8014 	 6419
10.8072 	 5984
10.813 	 6241
10.8187 	 6537
10.8245 	 6078
10.8303 	 6345
10.8361 	 5602
10.8419 	 5971
10.8476 	 7083
10.8534 	 6967
10.8592 	 5978
10.865 	 6531
10.8707 	 6823
10.8765 	 7842
10.8823 	 7127
10.8881 	 7301
10.8938 	 6847
10.8996 	 8046
10.9054 	 6916
10.9112 	 7305
10.9169 	 7633
10.9227 	 7007
10.9285 	 7123
10.9343 	 8291
10.94 	 7376
10.9458 	 7397
10.9516 	 7927
10.9574 	 8306
10.9631 	 8076
10.9689 	 8188
10.9747 	 8615
10.9805 	 7738
10.9862 	 8143
10.992 	 7821
10.9978 	 8699
11.0036 	 8128
11.0093 	 9770
11.0151 	 7898
11.0209 	 8739
11.0267 	 8037
11.0324 	 9337
11.0382 	 8963
11.044 	 9063
11.0498 	 9233
11.0555 	 9180
11.0613 	 9996
11.0671 	 9583
11.0729 	 9733
11.0786 	 9609
11.0844 	 9027
11.0902 	 9874
11.096 	 9742
11.1017 	 9741
11.1075 	 9790
11.1133 	 10302
11.1191 	 9343
11.1248 	 10836
11.1306 	 10355
11.1364 	 10666
11.1422 	 9765
11.1479 	 10465
11.1537 	 11094
11.1595 	 10945
11.1653 	 10937
11.171 	 11889
11.1768 	 11647
11.1826 	 11591
11.1884 	 11682
11.1941 	 11151
11.1999 	 13023
11.2057 	 12576
11.2115 	 12254
11.2173 	 13923
11.223 	 12596
11.2288 	 12452
11.2346 	 12287
11.2404 	 13347
11.2461 	 13185
11.2519 	 12883
11.2577 	 13495
11.2635 	 14824
11.2692 	 13967
11.275 	 13017
11.2808 	 13626
11.2866 	 14029
11.2923 	 14347
11.2981 	 14494
11.3039 	 14468
11.3097 	 15067
11.3154 	 15745
11.3212 	 15687
11.327 	 14926
11.3328 	 16038
11.3385 	 14203
11.3443 	 15094
11.3501 	 15692
11.3559 	 16768
11.3616 	 17495
11.3674 	 16304
11.3732 	 16172
11.379 	 15505
11.3847 	 16458
11.3905 	 16052
11.3963 	 16998
11.4021 	 18324
11.4078 	 18365
11.4136 	 18398
11.4194 	 17889
11.4252 	 17171
11.4309 	 16477
11.4367 	 18994
11.4425 	 18191
11.4483 	 18289
11.454 	 20252
11.4598 	 19991
11.4656 	 19295
11.4714 	 19303
11.4771 	 20928
11.4829 	 19962
11.4887 	 19462
11.4945 	 19973
11.5002 	 20841
11.506 	 20123
11.5118 	 20166
11.5176 	 21165
11.5233 	 22011
11.5291 	 21800
11.5349 	 23635
11.5407 	 23426
11.5464 	 22344
11.5522 	 24282
11.558 	 22531
11.5638 	 24280
11.5695 	 22580
11.5753 	 25712
11.5811 	 24055
11.5869 	 24953
11.5926 	 24077
11.5984 	 25774
11.6042 	 25571
11.61 	 26733
11.6158 	 27386
11.6215 	 25405
11.6273 	 27380
11.6331 	 26653
11.6389 	 28239
11.6446 	 26511
11.6504 	 27147
11.6562 	 28110
11.662 	 28946
11.6677 	 28968
11.6735 	 28192
11.6793 	 28759
11.6851 	 29158
11.6908 	 31179
11.6966 	 29182
11.7024 	 29980
11.7082 	 30311
11.7139 	 32482
11.7197 	 32683
11.7255 	 30534
11.7313 	 31727
11.737 	 33088
11.7428 	 34434
11.7486 	 33647
11.7544 	 32933
11.7601 	 33012
11.7659 	 36638
11.7717 	 35357
11.7775 	 35184
11.7832 	 36923
11.789 	 33877
11.7948 	 37161
11.8006 	 36463
11.8063 	 36631
11.8121 	 37914
11.8179 	 36017
11.8237 	 37525
11.8294 	 38649
11.8352 	 36561
11.841 	 38973
11.8468 	 39316
11.8525 	 38278
11.8583 	 40892
11.8641 	 41237
11.8699 	 41618
11.8756 	 41937
11.8814 	 41096
11.8872 	 43444
11.893 	 42345
11.8987 	 41876
11.9045 	 43275
11.9103 	 42413
11.9161 	 42764
11.9218 	 42676
11.9276 	 43364
11.9334 	 44646
11.9392 	 43136
11.9449 	 43316
11.9507 	 45477
11.9565 	 45086
11.9623 	 45391
11.968 	 44929
11.9738 	 46324
11.9796 	 48795
11.9854 	 46140
11.9912 	 45874
11.9969 	 45759
12.0027 	 47067
12.0085 	 49190
12.0143 	 46560
12.02 	 49365
12.0258 	 48604
12.0316 	 48120
12.0374 	 49536
12.0431 	 49395
12.0489 	 50246
12.0547 	 48627
12.0605 	 50066
12.0662 	 48536
12.072 	 50898
12.0778 	 52689
12.0836 	 53331
12.0893 	 52380
12.0951 	 51764
12.1009 	 52971
12.1067 	 52723
12.1124 	 52108
12.1182 	 52732
12.124 	 53438
12.1298 	 52856
12.1355 	 56233
12.1413 	 52380
12.1471 	 53550
12.1529 	 54723
12.1586 	 56142
12.1644 	 54574
12.1702 	 57346
12.176 	 57518
12.1817 	 57954
12.1875 	 56730
12.1933 	 57102
12.1991 	 56432
12.2048 	 55085
12.2106 	 55492
12.2164 	 58056
12.2222 	 56038
12.2279 	 57818
12.2337 	 57885
12.2395 	 58568
12.2453 	 60207
12.251 	 57393
12.2568 	 58348
12.2626 	 56564
12.2684 	 60344
12.2741 	 59370
12.2799 	 60792
12.2857 	 59201
12.2915 	 59577
12.2972 	 58060
12.303 	 58706
12.3088 	 60496
12.3146 	 60803
12.3203 	 61243
12.3261 	 61380
12.3319 	 61042
12.3377 	 59253
12.3434 	 61449
12.3492 	 61014
12.355 	 61482
12.3608 	 61384
12.3666 	 62463
12.3723 	 61906
12.3781 	 63401
12.3839 	 62457
12.3897 	 62629
12.3954 	 63680
12.4012 	 63680
12.407 	 62140
12.4128 	 64784
12.4185 	 61204
12.4243 	 64004
12.4301 	 62853
12.4359 	 63051
12.4416 	 63315
12.4474 	 63979
12.4532 	 64277
12.459 	 63288
12.4647 	 64597
12.4705 	 62205
12.4763 	 62718
12.4821 	 64504
12.4878 	 64575
12.4936 	 64445
12.4994 	 65146
12.5052 	 66637
12.5109 	 64549
12.5167 	 64140
12.5225 	 63676
12.5283 	 64054
12.534 	 63076
12.5398 	 65575
12.5456 	 63686
12.5514 	 62139
12.5571 	 63534
12.5629 	 64316
12.5687 	 64522
12.5745 	 63589
12.5802 	 66163
12.586 	 65221
12.5918 	 65865
12.5976 	 62994
12.6033 	 64262
12.6091 	 63989
12.6149 	 66669
12.6207 	 64114
12.6264 	 66650
12.6322 	 64927
12.638 	 65674
12.6438 	 64173
12.6495 	 65374
12.6553 	 63997
12.6611 	 62997
12.6669 	 64951
12.6726 	 63920
12.6784 	 64642
12.6842 	 67489
12.69 	 65174
12.6957 	 64528
12.7015 	 66110
12.7073 	 67114
